# Recoil energy (kev)        Event rate (events/gev)
   1.0000000000000000        4024.2496487325429     
   2.0000000000000000        7844.5238859127521     
   3.0000000000000000        11467.395494667917     
   4.0000000000000000        14898.293840678070     
   5.0000000000000000        18142.667403111496     
   6.0000000000000000        21205.968127701719     
   7.0000000000000000        24093.640388924861     
   8.0000000000000000        26811.117218491010     
   9.0000000000000000        29363.786902775464     
   10.000000000000000        31757.017507100183     
   11.000000000000000        33996.113127010729     
   12.000000000000000        36086.329086115118     
   13.000000000000000        38032.857862095378     
   14.000000000000000        39840.820240371148     
   15.000000000000000        41515.260932198515     
   16.000000000000000        43061.142417194169     
   17.000000000000000        44483.361729548269     
   18.000000000000000        45786.668043612612     
   19.000000000000000        46975.797579631930     
   20.000000000000000        48055.343737646726     
   21.000000000000000        49029.791067788959     
   22.000000000000000        49903.561053536374     
   23.000000000000000        50680.978927266697     
   24.000000000000000        51366.142142756806     
   25.000000000000000        51963.243816082701     
   26.000000000000000        52476.230869408188     
   27.000000000000000        52908.987320993918     
   28.000000000000000        53265.303008046598     
   29.000000000000000        53548.792693147494     
   30.000000000000000        53763.071028683276     
   31.000000000000000        53911.579831548501     
   32.000000000000000        53997.660528628745     
   33.000000000000000        54024.562924703539     
   34.000000000000000        53995.477356945339     
   35.000000000000000        53913.396525889388     
   36.000000000000000        53781.234702712631     
   37.000000000000000        53601.904214610797     
   38.000000000000000        53378.100140234499     
   39.000000000000000        53112.545926392151     
   40.000000000000000        52807.735342225977     
   41.000000000000000        52466.125119695884     
   42.000000000000000        52090.140687368861     
   43.000000000000000        51682.012818262127     
   44.000000000000000        51243.970433109505     
   45.000000000000000        50778.115965178054     
   46.000000000000000        50286.456856867124     
   47.000000000000000        49770.920459150395     
   48.000000000000000        49233.355959801214     
   49.000000000000000        48675.536324337736     
   50.000000000000000        48099.160244825907     
   51.000000000000000        47505.854092013244     
   52.000000000000000        46897.173866584555     
   53.000000000000000        46274.607145644761     
   54.000000000000000        45639.575020833174     
   55.000000000000000        44993.434024761373     
   56.000000000000000        44337.478042741481     
   57.000000000000000        43672.940207035703     
   58.000000000000000        43000.994771103768     
   59.000000000000000        42322.758961565465     
   60.000000000000000        41639.294805814818     
   61.000000000000000        40951.610933436641     
   62.000000000000000        40260.664349773084     
   63.000000000000000        39567.362180175449     
   64.000000000000000        38872.563383653200     
   65.000000000000000        38177.080434795062     
   66.000000000000000        37481.680972992406     
   67.000000000000000        36787.089418139360     
   68.000000000000000        36093.988552117808     
   69.000000000000000        35403.021065501358     
   70.000000000000000        34714.791069028477     
   71.000000000000000        34029.865569503352     
   72.000000000000000        33348.775909883356     
   73.000000000000000        32672.019173404897     
   74.000000000000000        32000.059551684200     
   75.000000000000000        31333.329676810292     
   76.000000000000000        30672.231917517904     
   77.000000000000000        30017.139639596444     
   78.000000000000000        29368.398430750989     
   79.000000000000000        28726.327290186724     
   80.000000000000000        28091.219783240453     
   81.000000000000000        27463.345161426088     
   82.000000000000000        26842.949448304607     
   83.000000000000000        26230.256491624801     
   84.000000000000000        25625.468982215883     
   85.000000000000000        25028.769440140568     
   86.000000000000000        24440.321168645631     
   87.000000000000000        23860.269176468879     
   88.000000000000000        23288.741069081276     
   89.000000000000000        22725.847909461198     
   90.000000000000000        22171.685049010932     
   91.000000000000000        21626.332929239910     
   92.000000000000000        21089.857854846796     
   93.000000000000000        20562.312738841760     
   94.000000000000000        20043.737820356400     
   95.000000000000000        19534.161355792239     
   96.000000000000000        19033.600283961110     
   97.000000000000000        18542.060865872911     
   98.000000000000000        18059.539299823966     
   99.000000000000000        17586.022312439603     
   100.00000000000000        17121.487726319658     
   101.00000000000000        16665.905004933040     
   102.00000000000000        16219.235775402090     
   103.00000000000000        15781.434329811009     
   104.00000000000000        15352.448105667221     
   105.00000000000000        14932.218146136098     
   106.00000000000000        14520.679540661529     
   107.00000000000000        14117.761846576830     
   108.00000000000000        13723.389492300328     
   109.00000000000000        13337.482162701484     
   110.00000000000000        12959.955167212149     
   111.00000000000000        12590.719791248224     
   112.00000000000000        12229.683631495183     
   113.00000000000000        11876.750915601600     
   114.00000000000000        11531.822806811524     
   115.00000000000000        11194.797694057064     
   116.00000000000000        10865.571468019956     
   117.00000000000000        10544.037783659842     
   118.00000000000000        10230.088309694907     
   119.00000000000000        9923.6129655091881     
   120.00000000000000        9624.5001459488376     
   121.00000000000000        9332.6369344581108     
   122.00000000000000        9047.9093049941803     
   123.00000000000000        8770.2023131477399     
   124.00000000000000        8499.4002768859427     
   125.00000000000000        8235.3869473209670     
   126.00000000000000        7978.0456698981961     
   127.00000000000000        7727.2595363848941     
   128.00000000000000        7482.9115280303695     
   129.00000000000000        7244.8846502569459     
   130.00000000000000        7013.0620592307241     
   131.00000000000000        6787.3271806498487     
   132.00000000000000        6567.5638210781481     
   133.00000000000000        6353.6562721412683     
   134.00000000000000        6145.4894078922925     
   135.00000000000000        5942.9487756441185     
   136.00000000000000        5745.9206805559352     
   137.00000000000000        5554.2922642516633     
   138.00000000000000        5367.9515777387132     
   139.00000000000000        5186.7876488864731     
   140.00000000000000        5010.6905447148465     
   141.00000000000000        4839.5514287346068     
   142.00000000000000        4673.2626135722230     
   143.00000000000000        4511.7176091044921     
   144.00000000000000        4354.8111663191603     
   145.00000000000000        4202.4393171104566     
   146.00000000000000        4054.4994102104361     
   147.00000000000000        3910.8901434498102     
   148.00000000000000        3771.5115925342584     
   149.00000000000000        3636.2652365154581     
   150.00000000000000        3505.0539801290611     
   151.00000000000000        3377.7821731650101     
   152.00000000000000        3254.3556270293125     
   153.00000000000000        3134.6816286499302     
   154.00000000000000        3018.6689518732915     
   155.00000000000000        2906.2278664921355     
   156.00000000000000        2797.2701450395230     
   157.00000000000000        2691.7090674783271     
   158.00000000000000        2589.4594239101043     
   159.00000000000000        2490.4375154219674     
   160.00000000000000        2394.5611531851896     
   161.00000000000000        2301.7496559142387     
   162.00000000000000        2211.9238457902175     
   163.00000000000000        2125.0060429481541     
   164.00000000000000        2040.9200586232939     
   165.00000000000000        1959.5911870470218     
   166.00000000000000        1880.9461961792081     
   167.00000000000000        1804.9133173596629     
   168.00000000000000        1731.4222339575199     
   169.00000000000000        1660.4040690938587     
   170.00000000000000        1591.7913725091621     
   171.00000000000000        1525.5181066438158     
   172.00000000000000        1461.5196319966888     
   173.00000000000000        1399.7326918234460     
   174.00000000000000        1340.0953962334170     
   175.00000000000000        1282.5472057407324     
   176.00000000000000        1227.0289143227474     
   177.00000000000000        1173.4826320359907     
   178.00000000000000        1121.8517672372825     
   179.00000000000000        1072.0810084551692     
   180.00000000000000        1024.1163059544890     
   181.00000000000000        977.90485303437629     
   182.00000000000000        933.39506709813202     
   183.00000000000000        890.53657053091354     
   184.00000000000000        849.28017141939415     
   185.00000000000000        809.57784414558250     
   186.00000000000000        771.38270988497072     
   187.00000000000000        734.64901703762507     
   188.00000000000000        699.33212161889594     
   189.00000000000000        665.38846763497736     
   190.00000000000000        632.77556746688288     
   191.00000000000000        601.45198228491711     
   192.00000000000000        571.37730251436585     
   193.00000000000000        542.51212837163166     
   194.00000000000000        514.81805048894307     
   195.00000000000000        488.25763064431692     
   196.00000000000000        462.79438261239699     
   197.00000000000000        438.39275315065476     
   198.00000000000000        415.01810313430940     
   199.00000000000000        392.63668885235091     
   200.00000000000000        371.21564347610320     
   201.00000000000000        350.72295871071094     
   202.00000000000000        331.12746663924077     
   203.00000000000000        312.39882176810505     
   204.00000000000000        294.50748328177770     
   205.00000000000000        277.42469751402552     
   206.00000000000000        261.12248064216635     
   207.00000000000000        245.57360161015282     
   208.00000000000000        230.75156528567919     
   209.00000000000000        216.63059585591049     
   210.00000000000000        203.18562046579629     
   211.00000000000000        190.39225310246951     
   212.00000000000000        178.22677872867084     
   213.00000000000000        166.66613766766676     
   214.00000000000000        155.68791024167348     
   215.00000000000000        145.27030166539171     
   216.00000000000000        135.39212719581735     
   217.00000000000000        126.03279753914856     
   218.00000000000000        117.17230451522977     
   219.00000000000000        108.79120697965777     
   220.00000000000000        100.87061700336204     
   221.00000000000000        93.392186309152237     
   222.00000000000000        86.338092964497193     
   223.00000000000000        79.691028329507745     
   224.00000000000000        73.434184258879412     
   225.00000000000000        67.551240556328679     
   226.00000000000000        62.026352679831845     
   227.00000000000000        56.844139695832851     
   228.00000000000000        51.989672480350727     
   229.00000000000000        47.448462164805193     
   230.00000000000000        43.206448824211300     
   231.00000000000000        39.249990405256781     
   232.00000000000000        35.565851891654297     
   233.00000000000000        32.141194704054435     
   234.00000000000000        28.963566331688078     
   235.00000000000000        26.020890192833477     
   236.00000000000000        23.301455721100361     
   237.00000000000000        20.793908674468106     
   238.00000000000000        18.487241663935794     
   239.00000000000000        16.370784898589989     
   240.00000000000000        14.434197143846866     
   241.00000000000000        12.667456889582333     
   242.00000000000000        11.060853724823628     
   243.00000000000000        9.6049799156525992     
   244.00000000000000        8.2907221829422042     
   245.00000000000000        7.1092536765302059     
   246.00000000000000        6.0520261424252970     
   247.00000000000000        5.1107622796279024     
   248.00000000000000        4.2774482831456284     
   249.00000000000000        3.5443265697877151     
   250.00000000000000        2.9038886833244670     
   251.00000000000000        2.3488683756071067     
   252.00000000000000        1.8722348602579038     
   253.00000000000000        1.4671862355528147     
   254.00000000000000        1.1271430731412506     
   255.00000000000000       0.84574216926704304     
   256.00000000000000       0.61683045517788504     
   257.00000000000000       0.43445906344098711     
   258.00000000000000       0.29287754690693174     
   259.00000000000000       0.18652824709822968     
   260.00000000000000       0.11004080882988333     
   261.00000000000000        5.8226837904419931E-002
   262.00000000000000        2.6074698760246033E-002
   263.00000000000000        8.7444489888258183E-003
   264.00000000000000        1.5629076758378276E-003
   265.00000000000000        1.8854560847235217E-005
   266.00000000000000       -0.0000000000000000     
   267.00000000000000       -0.0000000000000000     
   268.00000000000000       -0.0000000000000000     
   269.00000000000000       -0.0000000000000000     
   270.00000000000000       -0.0000000000000000     
   271.00000000000000       -0.0000000000000000     
   272.00000000000000       -0.0000000000000000     
   273.00000000000000       -0.0000000000000000     
   274.00000000000000       -0.0000000000000000     
   275.00000000000000       -0.0000000000000000     
   276.00000000000000       -0.0000000000000000     
   277.00000000000000       -0.0000000000000000     
   278.00000000000000       -0.0000000000000000     
   279.00000000000000       -0.0000000000000000     
   280.00000000000000       -0.0000000000000000     
   281.00000000000000       -0.0000000000000000     
   282.00000000000000       -0.0000000000000000     
   283.00000000000000       -0.0000000000000000     
   284.00000000000000       -0.0000000000000000     
   285.00000000000000       -0.0000000000000000     
   286.00000000000000       -0.0000000000000000     
   287.00000000000000       -0.0000000000000000     
   288.00000000000000       -0.0000000000000000     
   289.00000000000000       -0.0000000000000000     
   290.00000000000000       -0.0000000000000000     
   291.00000000000000       -0.0000000000000000     
   292.00000000000000       -0.0000000000000000     
   293.00000000000000       -0.0000000000000000     
   294.00000000000000       -0.0000000000000000     
   295.00000000000000       -0.0000000000000000     
   296.00000000000000       -0.0000000000000000     
   297.00000000000000       -0.0000000000000000     
   298.00000000000000       -0.0000000000000000     
   299.00000000000000       -0.0000000000000000     
   300.00000000000000       -0.0000000000000000     
   301.00000000000000       -0.0000000000000000     
   302.00000000000000       -0.0000000000000000     
   303.00000000000000       -0.0000000000000000     
   304.00000000000000       -0.0000000000000000     
   305.00000000000000       -0.0000000000000000     
   306.00000000000000       -0.0000000000000000     
   307.00000000000000       -0.0000000000000000     
   308.00000000000000       -0.0000000000000000     
   309.00000000000000       -0.0000000000000000     
   310.00000000000000       -0.0000000000000000     
   311.00000000000000       -0.0000000000000000     
   312.00000000000000       -0.0000000000000000     
   313.00000000000000       -0.0000000000000000     
   314.00000000000000       -0.0000000000000000     
   315.00000000000000       -0.0000000000000000     
   316.00000000000000       -0.0000000000000000     
   317.00000000000000       -0.0000000000000000     
   318.00000000000000       -0.0000000000000000     
   319.00000000000000       -0.0000000000000000     
   320.00000000000000       -0.0000000000000000     
   321.00000000000000       -0.0000000000000000     
   322.00000000000000       -0.0000000000000000     
   323.00000000000000       -0.0000000000000000     
   324.00000000000000       -0.0000000000000000     
   325.00000000000000       -0.0000000000000000     
   326.00000000000000       -0.0000000000000000     
   327.00000000000000       -0.0000000000000000     
   328.00000000000000       -0.0000000000000000     
   329.00000000000000       -0.0000000000000000     
   330.00000000000000       -0.0000000000000000     
   331.00000000000000       -0.0000000000000000     
   332.00000000000000       -0.0000000000000000     
   333.00000000000000       -0.0000000000000000     
   334.00000000000000       -0.0000000000000000     
   335.00000000000000       -0.0000000000000000     
   336.00000000000000       -0.0000000000000000     
   337.00000000000000       -0.0000000000000000     
   338.00000000000000       -0.0000000000000000     
   339.00000000000000       -0.0000000000000000     
   340.00000000000000       -0.0000000000000000     
   341.00000000000000       -0.0000000000000000     
   342.00000000000000       -0.0000000000000000     
   343.00000000000000       -0.0000000000000000     
   344.00000000000000       -0.0000000000000000     
   345.00000000000000       -0.0000000000000000     
   346.00000000000000       -0.0000000000000000     
   347.00000000000000       -0.0000000000000000     
   348.00000000000000       -0.0000000000000000     
   349.00000000000000       -0.0000000000000000     
   350.00000000000000       -0.0000000000000000     
   351.00000000000000       -0.0000000000000000     
   352.00000000000000       -0.0000000000000000     
   353.00000000000000       -0.0000000000000000     
   354.00000000000000       -0.0000000000000000     
   355.00000000000000       -0.0000000000000000     
   356.00000000000000       -0.0000000000000000     
   357.00000000000000       -0.0000000000000000     
   358.00000000000000       -0.0000000000000000     
   359.00000000000000       -0.0000000000000000     
   360.00000000000000       -0.0000000000000000     
   361.00000000000000       -0.0000000000000000     
   362.00000000000000       -0.0000000000000000     
   363.00000000000000       -0.0000000000000000     
   364.00000000000000       -0.0000000000000000     
   365.00000000000000       -0.0000000000000000     
   366.00000000000000       -0.0000000000000000     
   367.00000000000000       -0.0000000000000000     
   368.00000000000000       -0.0000000000000000     
   369.00000000000000       -0.0000000000000000     
   370.00000000000000       -0.0000000000000000     
   371.00000000000000       -0.0000000000000000     
   372.00000000000000       -0.0000000000000000     
   373.00000000000000       -0.0000000000000000     
   374.00000000000000       -0.0000000000000000     
   375.00000000000000       -0.0000000000000000     
   376.00000000000000       -0.0000000000000000     
