# Recoil energy (kev)        Event rate (events/gev)
   1.0000000000000000        6342.2680524263733     
   2.0000000000000000        6147.4578191589071     
   3.0000000000000000        5957.8964751891936     
   4.0000000000000000        5773.4775865455567     
   5.0000000000000000        5594.0938382044669     
   6.0000000000000000        5419.6383276781271     
   7.0000000000000000        5250.0045534238570     
   8.0000000000000000        5085.0887888662464     
   9.0000000000000000        4924.7847005650101     
   10.000000000000000        4768.9906471799532     
   11.000000000000000        4617.6030920529010     
   12.000000000000000        4470.5211470750191     
   13.000000000000000        4327.6446403543678     
   14.000000000000000        4188.8745758527084     
   15.000000000000000        4054.1132400644910     
   16.000000000000000        3923.2640503071625     
   17.000000000000000        3796.2327772143435     
   18.000000000000000        3672.9245433980323     
   19.000000000000000        3553.2481904424430     
   20.000000000000000        3437.1129535420637     
   21.000000000000000        3324.4286502026557     
   22.000000000000000        3215.1084253246167     
   23.000000000000000        3109.0659330463654     
   24.000000000000000        3006.2166990709393     
   25.000000000000000        2906.4802030737897     
   26.000000000000000        2809.7635453793046     
   27.000000000000000        2715.9993405534497     
   28.000000000000000        2625.1045675026867     
   29.000000000000000        2537.0030612635169     
   30.000000000000000        2451.6177284714408     
   31.000000000000000        2368.8749353368489     
   32.000000000000000        2288.7036505421893     
   33.000000000000000        2211.0320982487019     
   34.000000000000000        2135.7930093533055     
   35.000000000000000        2062.9167598397898     
   36.000000000000000        1992.3367626173535     
   37.000000000000000        1923.9887813438338     
   38.000000000000000        1857.8101702715396     
   39.000000000000000        1793.7382441652151     
   40.000000000000000        1731.7132196379553     
   41.000000000000000        1671.6760321172296     
   42.000000000000000        1613.5690571410046     
   43.000000000000000        1557.3360937477210     
   44.000000000000000        1502.9223888340939     
   45.000000000000000        1450.2745014886082     
   46.000000000000000        1399.3403197806556     
   47.000000000000000        1350.0690533480961     
   48.000000000000000        1302.4112094324312     
   49.000000000000000        1256.3185689379106     
   50.000000000000000        1211.7441625266599     
   51.000000000000000        1168.6422467639370     
   52.000000000000000        1126.9682803289445     
   53.000000000000000        1086.6789003076249     
   54.000000000000000        1047.7318985842630     
   55.000000000000000        1010.0861983489601     
   56.000000000000000        973.70183073791884     
   57.000000000000000        938.53991162320108     
   58.000000000000000        904.56261856816911     
   59.000000000000000        871.73316796423160     
   60.000000000000000        840.01579236385783     
   61.000000000000000        809.37571802407399     
   62.000000000000000        779.77914267385256     
   63.000000000000000        751.19321351797976     
   64.000000000000000        723.58600548916718     
   65.000000000000000        696.92649975927043     
   66.000000000000000        671.18456251966040     
   67.000000000000000        646.33092403992862     
   68.000000000000000        622.33715801327730     
   69.000000000000000        599.17566119613434     
   70.000000000000000        576.81963334873728     
   71.000000000000000        555.24305748266352     
   72.000000000000000        534.42068042055189     
   73.000000000000000        514.32799367253676     
   74.000000000000000        494.94121463324899     
   75.000000000000000        476.23726810259376     
   76.000000000000000        458.19376813286465     
   77.000000000000000        440.78900020421418     
   78.000000000000000        424.00190372990835     
   79.000000000000000        407.81205489227517     
   80.000000000000000        392.19964980978705     
   81.000000000000000        377.14548803520051     
   82.000000000000000        362.63095638430030     
   83.000000000000000        348.63801309433404     
   84.000000000000000        335.14917231086883     
   85.000000000000000        322.14748890144477     
   86.000000000000000        309.61654359405139     
   87.000000000000000        297.54042843816615     
   88.000000000000000        285.90373258579632     
   89.000000000000000        274.69152838971303     
   90.000000000000000        263.88935781581296     
   91.000000000000000        253.48321916634455     
   92.000000000000000        243.45955411050531     
   93.000000000000000        233.80523501875871     
   94.000000000000000        224.50755259704388     
   95.000000000000000        215.55420381689859     
   96.000000000000000        206.93328013739077     
   97.000000000000000        198.63325601462807     
   98.000000000000000        190.64297769451690     
   99.000000000000000        182.95165228434524     
   100.00000000000000        175.54883709869122     
   101.00000000000000        168.42442927508529     
   102.00000000000000        161.56865565480228     
   103.00000000000000        154.97206292411835     
   104.00000000000000        148.62550801131692     
   105.00000000000000        142.52014873472191     
   106.00000000000000        136.64743469700119     
   107.00000000000000        130.99909842098177     
   108.00000000000000        125.56714672221307     
   109.00000000000000        120.34385231351912     
   110.00000000000000        115.32174563679339     
   111.00000000000000        110.49360691729969     
   112.00000000000000        105.85245843577638     
   113.00000000000000        101.39155701365560     
   114.00000000000000        97.104386706753161     
   115.00000000000000        92.984651702811220     
   116.00000000000000        89.026269418322713     
   117.00000000000000        85.223363790109573     
   118.00000000000000        81.570258757170024     
   119.00000000000000        78.061471928367666     
   120.00000000000000        74.691708431582057     
   121.00000000000000        71.455854939997593     
   122.00000000000000        68.348973871270147     
   123.00000000000000        65.366297755362055     
   124.00000000000000        62.503223766906608     
   125.00000000000000        59.755308418018878     
   126.00000000000000        57.118262407538687     
   127.00000000000000        54.587945622757452     
   128.00000000000000        52.160362289742345     
   129.00000000000000        49.831656268443538     
   130.00000000000000        47.598106488836969     
   131.00000000000000        45.456122524421453     
   132.00000000000000        43.402240299461575     
   133.00000000000000        41.433117926432189     
   134.00000000000000        39.545531670194684     
   135.00000000000000        37.736372035499791     
   136.00000000000000        36.002639974484808     
   137.00000000000000        34.341443210899001     
   138.00000000000000        32.749992677860391     
   139.00000000000000        31.225599066017470     
   140.00000000000000        29.765669479055482     
   141.00000000000000        28.367704193552662     
   142.00000000000000        27.029293520263270     
   143.00000000000000        25.748114763966534     
   144.00000000000000        24.521929279087473     
   145.00000000000000        23.348579618361402     
   146.00000000000000        22.225986771876173     
   147.00000000000000        21.152147493891789     
   148.00000000000000        20.125131714896749     
   149.00000000000000        19.143080036425594     
   150.00000000000000        18.204201306219137     
   151.00000000000000        17.306770271371970     
   152.00000000000000        16.449125307168810     
   153.00000000000000        15.629666219369044     
   154.00000000000000        14.846852117758150     
   155.00000000000000        14.099199358837767     
   156.00000000000000        13.385279555582507     
   157.00000000000000        12.703717652246945     
   158.00000000000000        12.053190062256112     
   159.00000000000000        11.432422867268214     
   160.00000000000000        10.840190075547007     
   161.00000000000000        10.275311937832234     
   162.00000000000000        9.7366533189450450     
   163.00000000000000        9.2231221234137930     
   164.00000000000000        8.7336677734523320     
   165.00000000000000        8.2672797376685487     
   166.00000000000000        7.8229861089264441     
   167.00000000000000        7.3998522298288076     
   168.00000000000000        6.9969793643299827     
   169.00000000000000        6.6135034140316629     
   170.00000000000000        6.2485936777536946     
   171.00000000000000        5.9014516530141510     
   172.00000000000000        5.5713098780901440     
   173.00000000000000        5.2574308133706120     
   174.00000000000000        4.9591057607485949     
   175.00000000000000        4.6756538198377013     
   176.00000000000000        4.4064208798321483     
   177.00000000000000        4.1507786458653619     
   178.00000000000000        3.9081236987549115     
   179.00000000000000        3.6778765870555001     
   180.00000000000000        3.4594809503727744     
   181.00000000000000        3.2524026729227749     
   182.00000000000000        3.0561290663520086     
   183.00000000000000        2.8701680808625598     
   184.00000000000000        2.6940475437160525     
   185.00000000000000        2.5273144242178338     
   186.00000000000000        2.3695341243105590     
   187.00000000000000        2.2202897939325612     
   188.00000000000000        2.0791816703228374     
   189.00000000000000        1.9458264404789940     
   190.00000000000000        1.8198566259997402     
   191.00000000000000        1.7009199895667115     
   192.00000000000000        1.5886789623439710     
   193.00000000000000        1.4828100915959763     
   194.00000000000000        1.3830035078465164     
   195.00000000000000        1.2889624109227100     
   196.00000000000000        1.2004025742485449     
   197.00000000000000        1.1170518667725746     
   198.00000000000000        1.0386497919341422     
   199.00000000000000       0.96494704309102486     
   200.00000000000000       0.89570507485011830     
   201.00000000000000       0.83069568976048491     
   202.00000000000000       0.76970063984552939     
   203.00000000000000       0.71251124246766895     
   204.00000000000000       0.65892801003552126     
   205.00000000000000       0.60876029307917956     
   206.00000000000000       0.56182593623469479     
   207.00000000000000       0.51795094669369668     
   208.00000000000000       0.47696917468864669     
   209.00000000000000       0.43872200559814523     
   210.00000000000000       0.40305806327038557     
   211.00000000000000       0.36983292417603292     
   212.00000000000000       0.33890884201451044     
   213.00000000000000       0.31015448241026100     
   214.00000000000000       0.28344466734729473     
   215.00000000000000       0.25866012900229457     
   216.00000000000000       0.23568727264753142     
   217.00000000000000       0.21441794830600058     
   218.00000000000000       0.19474923085169285     
   219.00000000000000       0.17658320825816329     
   220.00000000000000       0.15982677770853468     
   221.00000000000000       0.14439144928972353     
   222.00000000000000       0.13019315700291273     
   223.00000000000000       0.11715207683145104     
   224.00000000000000       0.10519245161597481     
   225.00000000000000        9.4242422495124878E-002
   226.00000000000000        8.4233866678336725E-002
   227.00000000000000        7.5102241325186572E-002
   228.00000000000000        6.6786433313391610E-002
   229.00000000000000        5.9228614685046289E-002
   230.00000000000000        5.2374103567837060E-002
   231.00000000000000        4.6171230374943452E-002
   232.00000000000000        4.0571209094063844E-002
   233.00000000000000        3.5528013482532129E-002
   234.00000000000000        3.0998257991772235E-002
   235.00000000000000        2.6941083250444097E-002
   236.00000000000000        2.3318045941531473E-002
   237.00000000000000        2.0093012914319804E-002
   238.00000000000000        1.7232059377724544E-002
   239.00000000000000        1.4703371026770039E-002
   240.00000000000000        1.2477149959164461E-002
   241.00000000000000        1.0525524243913219E-002
   242.00000000000000        8.8224610087206199E-003
   243.00000000000000        7.3436829175945063E-003
   244.00000000000000        6.0665879145723580E-003
   245.00000000000000        4.9701721138356962E-003
   246.00000000000000        4.0349557206896943E-003
   247.00000000000000        3.2429118719483753E-003
   248.00000000000000        2.5773982881953142E-003
   249.00000000000000        2.0230916341838993E-003
   250.00000000000000        1.5659244873120885E-003
   251.00000000000000        1.1930248176459854E-003
   252.00000000000000        8.9265788639330472E-004
   253.00000000000000        6.5417047303231279E-004
   254.00000000000000        4.6793734449741017E-004
   255.00000000000000        3.2530988290721107E-004
   256.00000000000000        2.1856679130060683E-004
   257.00000000000000        1.4086679972433947E-004
   258.00000000000000        8.6203296794327709E-005
   259.00000000000000        4.9360814536573934E-005
   260.00000000000000        2.5873296904386870E-005
   261.00000000000000        1.1984084870378958E-005
   262.00000000000000        4.6075534069319136E-006
   263.00000000000000        1.2923380003373077E-006
   264.00000000000000        1.8609059470962015E-007
   265.00000000000000        1.7070342910560496E-009
   266.00000000000000       -0.0000000000000000     
   267.00000000000000       -0.0000000000000000     
   268.00000000000000       -0.0000000000000000     
   269.00000000000000       -0.0000000000000000     
   270.00000000000000       -0.0000000000000000     
   271.00000000000000       -0.0000000000000000     
   272.00000000000000       -0.0000000000000000     
   273.00000000000000       -0.0000000000000000     
   274.00000000000000       -0.0000000000000000     
   275.00000000000000       -0.0000000000000000     
   276.00000000000000       -0.0000000000000000     
   277.00000000000000       -0.0000000000000000     
   278.00000000000000       -0.0000000000000000     
   279.00000000000000       -0.0000000000000000     
   280.00000000000000       -0.0000000000000000     
   281.00000000000000       -0.0000000000000000     
   282.00000000000000       -0.0000000000000000     
   283.00000000000000       -0.0000000000000000     
   284.00000000000000       -0.0000000000000000     
   285.00000000000000       -0.0000000000000000     
   286.00000000000000       -0.0000000000000000     
   287.00000000000000       -0.0000000000000000     
   288.00000000000000       -0.0000000000000000     
   289.00000000000000       -0.0000000000000000     
   290.00000000000000       -0.0000000000000000     
   291.00000000000000       -0.0000000000000000     
   292.00000000000000       -0.0000000000000000     
   293.00000000000000       -0.0000000000000000     
   294.00000000000000       -0.0000000000000000     
   295.00000000000000       -0.0000000000000000     
   296.00000000000000       -0.0000000000000000     
   297.00000000000000       -0.0000000000000000     
   298.00000000000000       -0.0000000000000000     
   299.00000000000000       -0.0000000000000000     
   300.00000000000000       -0.0000000000000000     
   301.00000000000000       -0.0000000000000000     
   302.00000000000000       -0.0000000000000000     
   303.00000000000000       -0.0000000000000000     
   304.00000000000000       -0.0000000000000000     
   305.00000000000000       -0.0000000000000000     
   306.00000000000000       -0.0000000000000000     
   307.00000000000000       -0.0000000000000000     
   308.00000000000000       -0.0000000000000000     
   309.00000000000000       -0.0000000000000000     
   310.00000000000000       -0.0000000000000000     
   311.00000000000000       -0.0000000000000000     
   312.00000000000000       -0.0000000000000000     
   313.00000000000000       -0.0000000000000000     
   314.00000000000000       -0.0000000000000000     
   315.00000000000000       -0.0000000000000000     
   316.00000000000000       -0.0000000000000000     
   317.00000000000000       -0.0000000000000000     
   318.00000000000000       -0.0000000000000000     
   319.00000000000000       -0.0000000000000000     
   320.00000000000000       -0.0000000000000000     
   321.00000000000000       -0.0000000000000000     
   322.00000000000000       -0.0000000000000000     
   323.00000000000000       -0.0000000000000000     
   324.00000000000000       -0.0000000000000000     
   325.00000000000000       -0.0000000000000000     
   326.00000000000000       -0.0000000000000000     
   327.00000000000000       -0.0000000000000000     
   328.00000000000000       -0.0000000000000000     
   329.00000000000000       -0.0000000000000000     
   330.00000000000000       -0.0000000000000000     
   331.00000000000000       -0.0000000000000000     
   332.00000000000000       -0.0000000000000000     
   333.00000000000000       -0.0000000000000000     
   334.00000000000000       -0.0000000000000000     
   335.00000000000000       -0.0000000000000000     
   336.00000000000000       -0.0000000000000000     
   337.00000000000000       -0.0000000000000000     
   338.00000000000000       -0.0000000000000000     
   339.00000000000000       -0.0000000000000000     
   340.00000000000000       -0.0000000000000000     
   341.00000000000000       -0.0000000000000000     
   342.00000000000000       -0.0000000000000000     
   343.00000000000000       -0.0000000000000000     
   344.00000000000000       -0.0000000000000000     
   345.00000000000000       -0.0000000000000000     
   346.00000000000000       -0.0000000000000000     
   347.00000000000000       -0.0000000000000000     
   348.00000000000000       -0.0000000000000000     
   349.00000000000000       -0.0000000000000000     
   350.00000000000000       -0.0000000000000000     
   351.00000000000000       -0.0000000000000000     
   352.00000000000000       -0.0000000000000000     
   353.00000000000000       -0.0000000000000000     
   354.00000000000000       -0.0000000000000000     
   355.00000000000000       -0.0000000000000000     
   356.00000000000000       -0.0000000000000000     
   357.00000000000000       -0.0000000000000000     
   358.00000000000000       -0.0000000000000000     
   359.00000000000000       -0.0000000000000000     
   360.00000000000000       -0.0000000000000000     
   361.00000000000000       -0.0000000000000000     
   362.00000000000000       -0.0000000000000000     
   363.00000000000000       -0.0000000000000000     
   364.00000000000000       -0.0000000000000000     
   365.00000000000000       -0.0000000000000000     
   366.00000000000000       -0.0000000000000000     
   367.00000000000000       -0.0000000000000000     
   368.00000000000000       -0.0000000000000000     
   369.00000000000000       -0.0000000000000000     
   370.00000000000000       -0.0000000000000000     
   371.00000000000000       -0.0000000000000000     
   372.00000000000000       -0.0000000000000000     
   373.00000000000000       -0.0000000000000000     
   374.00000000000000       -0.0000000000000000     
   375.00000000000000       -0.0000000000000000     
   376.00000000000000       -0.0000000000000000     
