# Recoil energy (kev)        Event rate (events/gev)
   1.0000000000000000        147.45532698142921     
   2.0000000000000000        287.74449484659419     
   3.0000000000000000        421.04729351715270     
   4.0000000000000000        547.54535230470105     
   5.0000000000000000        667.42150946034747     
   6.0000000000000000        780.85924998095686     
   7.0000000000000000        888.04231013527829     
   8.0000000000000000        989.15454779113986     
   9.0000000000000000        1084.3787177393738     
   10.000000000000000        1173.8973811115727     
   11.000000000000000        1257.8912938572255     
   12.000000000000000        1336.5399689119520     
   13.000000000000000        1410.0211563275166     
   14.000000000000000        1478.5105142007851     
   15.000000000000000        1542.1814433361287     
   16.000000000000000        1601.2048547288307     
   17.000000000000000        1655.7497894780895     
   18.000000000000000        1705.9803461028321     
   19.000000000000000        1752.0606944564361     
   20.000000000000000        1794.1502346328396     
   21.000000000000000        1832.4048492375791     
   22.000000000000000        1866.9786050072930     
   23.000000000000000        1898.0225073489548     
   24.000000000000000        1925.6795601490035     
   25.000000000000000        1950.0968687379086     
   26.000000000000000        1971.4128246673990     
   27.000000000000000        1989.7639591138641     
   28.000000000000000        2005.2837613876716     
   29.000000000000000        2018.0996198450091     
   30.000000000000000        2028.3393958911306     
   31.000000000000000        2036.1249083453249     
   32.000000000000000        2041.5746452667140     
   33.000000000000000        2044.8040828370345     
   34.000000000000000        2045.9268922378833     
   35.000000000000000        2045.0496934769803     
   36.000000000000000        2042.2765481102774     
   37.000000000000000        2037.7118571537360     
   38.000000000000000        2031.4521731536149     
   39.000000000000000        2023.5955188264127     
   40.000000000000000        2014.2315565466511     
   41.000000000000000        2003.4489014874121     
   42.000000000000000        1991.3353385053454     
   43.000000000000000        1977.9715691410754     
   44.000000000000000        1963.4385622003263     
   45.000000000000000        1947.8127775395706     
   46.000000000000000        1931.1673529597031     
   47.000000000000000        1913.5726609111844     
   48.000000000000000        1895.0963695684054     
   49.000000000000000        1875.8035046458426     
   50.000000000000000        1855.7565117808565     
   51.000000000000000        1835.0153193188175     
   52.000000000000000        1813.6374013472889     
   53.000000000000000        1791.6778408367461     
   54.000000000000000        1769.1893927552019     
   55.000000000000000        1746.2225470344051     
   56.000000000000000        1722.8255912743675     
   57.000000000000000        1699.0446730823114     
   58.000000000000000        1674.9238619505984     
   59.000000000000000        1650.5052105864120     
   60.000000000000000        1625.8288156138317     
   61.000000000000000        1600.9328775761644     
   62.000000000000000        1575.8537601736105     
   63.000000000000000        1550.6260486775495     
   64.000000000000000        1525.2826074692673     
   65.000000000000000        1499.8546366566000     
   66.000000000000000        1474.3717277274079     
   67.000000000000000        1448.8619182040266     
   68.000000000000000        1423.3517452675969     
   69.000000000000000        1397.8662983255858     
   70.000000000000000        1372.4292705001615     
   71.000000000000000        1347.0630090188579     
   72.000000000000000        1321.7885644926298     
   73.000000000000000        1296.6257390698681     
   74.000000000000000        1271.5931334579068     
   75.000000000000000        1246.7081928066557     
   76.000000000000000        1221.9872514515534     
   77.000000000000000        1197.4455765154921     
   78.000000000000000        1173.0974103718015     
   79.000000000000000        1148.9560119723035     
   80.000000000000000        1125.0336970464425     
   81.000000000000000        1101.3418771793292     
   82.000000000000000        1077.8910977779915     
   83.000000000000000        1054.6910749366884     
   84.000000000000000        1031.7507312134435     
   85.000000000000000        1009.0782303311548     
   86.000000000000000        986.68101081761995     
   87.000000000000000        964.56581859991218     
   88.000000000000000        942.73873856931948     
   89.000000000000000        921.20522513375670     
   90.000000000000000        899.97013177533427     
   91.000000000000000        879.03773963125059     
   92.000000000000000        858.41178511671399     
   93.000000000000000        838.09548660894211     
   94.000000000000000        818.09157021176691     
   95.000000000000000        798.40229462048615     
   96.000000000000000        779.02947510693298     
   97.000000000000000        759.97450664488917     
   98.000000000000000        741.23838619597745     
   99.000000000000000        722.82173417640638     
   100.00000000000000        704.72481512475940     
   101.00000000000000        686.94755759113878     
   102.00000000000000        669.48957326787865     
   103.00000000000000        652.35017538187242     
   104.00000000000000        635.52839636856834     
   105.00000000000000        619.02300484737987     
   106.00000000000000        602.83252191821032     
   107.00000000000000        586.95523679847349     
   108.00000000000000        571.38922181983776     
   109.00000000000000        556.13234680366452     
   110.00000000000000        541.18229283377468     
   111.00000000000000        526.53656544503804     
   112.00000000000000        512.19250724581934     
   113.00000000000000        498.14730999215016     
   114.00000000000000        484.39802613110487     
   115.00000000000000        470.94157983055561     
   116.00000000000000        457.77477751212433     
   117.00000000000000        444.89431790387857     
   118.00000000000000        432.29680162887854     
   119.00000000000000        419.97874034541758     
   120.00000000000000        407.93656545439728     
   121.00000000000000        396.16663638894943     
   122.00000000000000        384.66524850104565     
   123.00000000000000        373.42864055949275     
   124.00000000000000        362.45300187336369     
   125.00000000000000        351.73447905451462     
   126.00000000000000        341.26918243256500     
   127.00000000000000        331.05319213527957     
   128.00000000000000        321.08256384700951     
   129.00000000000000        311.35333425746916     
   130.00000000000000        301.86152621279001     
   131.00000000000000        292.60315358046677     
   132.00000000000000        283.57422583946453     
   133.00000000000000        274.77075240640772     
   134.00000000000000        266.18874670852057     
   135.00000000000000        257.82423001355073     
   136.00000000000000        249.67323502670732     
   137.00000000000000        241.73180926427034     
   138.00000000000000        233.99601821323790     
   139.00000000000000        226.46194828608449     
   140.00000000000000        219.12570957941139     
   141.00000000000000        211.98343844499240     
   142.00000000000000        205.03129988139901     
   143.00000000000000        198.26548975417535     
   144.00000000000000        191.68223685221545     
   145.00000000000000        185.27780478775239     
   146.00000000000000        179.04849374711677     
   147.00000000000000        172.99064209916182     
   148.00000000000000        167.10062786801859     
   149.00000000000000        161.37487007660098     
   150.00000000000000        155.80982996704694     
   151.00000000000000        150.40201210406562     
   152.00000000000000        145.14796536693584     
   153.00000000000000        140.04428383568552     
   154.00000000000000        135.08760757677561     
   155.00000000000000        130.27462333341435     
   156.00000000000000        125.60206512542889     
   157.00000000000000        121.06671476343074     
   158.00000000000000        116.66540228182389     
   159.00000000000000        112.39500629503385     
   160.00000000000000        108.25245428115150     
   161.00000000000000        104.23472279703032     
   162.00000000000000        100.33883762869745     
   163.00000000000000        96.561873880787914     
   164.00000000000000        92.900956008567107     
   165.00000000000000        89.353257795938831     
   166.00000000000000        85.916002282713777     
   167.00000000000000        82.586461644258208     
   168.00000000000000        79.361957026517160     
   169.00000000000000        76.239858339277106     
   170.00000000000000        73.217584010404849     
   171.00000000000000        70.292600703675689     
   172.00000000000000        67.462423002699651     
   173.00000000000000        64.724613063325378     
   174.00000000000000        62.076780236804012     
   175.00000000000000        59.516580665890963     
   176.00000000000000        57.041716855951627     
   177.00000000000000        54.649937223055758     
   178.00000000000000        52.339035620935633     
   179.00000000000000        50.106850848605340     
   180.00000000000000        47.951266140345666     
   181.00000000000000        45.870208639672192     
   182.00000000000000        43.861648858836773     
   183.00000000000000        41.923600125317080     
   184.00000000000000        40.054118016689166     
   185.00000000000000        38.251299785201958     
   186.00000000000000        36.513283773299264     
   187.00000000000000        34.838248821277787     
   188.00000000000000        33.224413668197336     
   189.00000000000000        31.670036347106318     
   190.00000000000000        30.173413575582792     
   191.00000000000000        28.732880142535549     
   192.00000000000000        27.346808292160670     
   193.00000000000000        26.013607105889779     
   194.00000000000000        24.731721883126308     
   195.00000000000000        23.499633521512322     
   196.00000000000000        22.315857897424635     
   197.00000000000000        21.178945247359426     
   198.00000000000000        20.087479550818532     
   199.00000000000000        19.040077915274129     
   200.00000000000000        18.035389963752479     
   201.00000000000000        17.072097225534272     
   202.00000000000000        16.148912530445379     
   203.00000000000000        15.264579407170251     
   204.00000000000000        14.417871485992551     
   205.00000000000000        13.607591906338731     
   206.00000000000000        12.832572729469879     
   207.00000000000000        12.091674356641144     
   208.00000000000000        11.383784953022023     
   209.00000000000000        10.707819877647605     
   210.00000000000000        10.062721119644696     
   211.00000000000000        9.4474567409579482     
   212.00000000000000        8.8610203257782878     
   213.00000000000000        8.3024304368560156     
   214.00000000000000        7.7707300788622016     
   215.00000000000000        7.2649861689454722     
   216.00000000000000        6.7842890146114323     
   217.00000000000000        6.3277517990387517     
   218.00000000000000        5.8945100739289487     
   219.00000000000000        5.4837212599729677     
   220.00000000000000        5.0945641550050755     
   221.00000000000000        4.7262384498994665     
   222.00000000000000        4.3779642522554552     
   223.00000000000000        4.0489816179040359     
   224.00000000000000        3.7385500902583511     
   225.00000000000000        3.4459482475211334     
   226.00000000000000        3.1704732577509764     
   227.00000000000000        2.9114404417832280     
   228.00000000000000        2.6681828439898672     
   229.00000000000000        2.4400508108568908     
   230.00000000000000        2.2264115773503192     
   231.00000000000000        2.0266488610342970     
   232.00000000000000        1.8401624638989278     
   233.00000000000000        1.6663678818499090     
   234.00000000000000        1.5046959218057474     
   235.00000000000000        1.3545923263441650     
   236.00000000000000        1.2155174058338254     
   237.00000000000000        1.0869456779838846     
   238.00000000000000       0.96836551473939869     
   239.00000000000000       0.85927879644711758     
   240.00000000000000       0.75920057321298184     
   241.00000000000000       0.66765873336960035     
   242.00000000000000       0.58419367896891206     
   243.00000000000000       0.50835800821326305     
   244.00000000000000       0.43971620473549428     
   245.00000000000000       0.37784433363673342     
   246.00000000000000       0.32232974418905935     
   247.00000000000000       0.27277077910835373     
   248.00000000000000       0.22877649030139746     
   249.00000000000000       0.18996636099028175     
   250.00000000000000       0.15597003411604218     
   251.00000000000000       0.12642704692269266     
   252.00000000000000       0.10098657162226204     
   253.00000000000000        7.9307162040810994E-002
   254.00000000000000        6.1056506145241052E-002
   255.00000000000000        4.5911184350398961E-002
   256.00000000000000        3.3556433505838132E-002
   257.00000000000000        2.3685916461849470E-002
   258.00000000000000        1.6001497114272005E-002
   259.00000000000000        1.0213020828044534E-002
   260.00000000000000        6.0381001396998509E-003
   261.00000000000000        3.2019056394813178E-003
   262.00000000000000        1.4369619343020785E-003
   263.00000000000000        4.8294859332631448E-004
   264.00000000000000        8.6505978675294328E-005
   265.00000000000000        1.0458644753688443E-006
   266.00000000000000       -0.0000000000000000     
   267.00000000000000       -0.0000000000000000     
   268.00000000000000       -0.0000000000000000     
   269.00000000000000       -0.0000000000000000     
   270.00000000000000       -0.0000000000000000     
   271.00000000000000       -0.0000000000000000     
   272.00000000000000       -0.0000000000000000     
   273.00000000000000       -0.0000000000000000     
   274.00000000000000       -0.0000000000000000     
   275.00000000000000       -0.0000000000000000     
   276.00000000000000       -0.0000000000000000     
   277.00000000000000       -0.0000000000000000     
   278.00000000000000       -0.0000000000000000     
   279.00000000000000       -0.0000000000000000     
   280.00000000000000       -0.0000000000000000     
   281.00000000000000       -0.0000000000000000     
   282.00000000000000       -0.0000000000000000     
   283.00000000000000       -0.0000000000000000     
   284.00000000000000       -0.0000000000000000     
   285.00000000000000       -0.0000000000000000     
   286.00000000000000       -0.0000000000000000     
   287.00000000000000       -0.0000000000000000     
   288.00000000000000       -0.0000000000000000     
   289.00000000000000       -0.0000000000000000     
   290.00000000000000       -0.0000000000000000     
   291.00000000000000       -0.0000000000000000     
   292.00000000000000       -0.0000000000000000     
   293.00000000000000       -0.0000000000000000     
   294.00000000000000       -0.0000000000000000     
   295.00000000000000       -0.0000000000000000     
   296.00000000000000       -0.0000000000000000     
   297.00000000000000       -0.0000000000000000     
   298.00000000000000       -0.0000000000000000     
   299.00000000000000       -0.0000000000000000     
   300.00000000000000       -0.0000000000000000     
   301.00000000000000       -0.0000000000000000     
   302.00000000000000       -0.0000000000000000     
   303.00000000000000       -0.0000000000000000     
   304.00000000000000       -0.0000000000000000     
   305.00000000000000       -0.0000000000000000     
   306.00000000000000       -0.0000000000000000     
   307.00000000000000       -0.0000000000000000     
   308.00000000000000       -0.0000000000000000     
   309.00000000000000       -0.0000000000000000     
   310.00000000000000       -0.0000000000000000     
   311.00000000000000       -0.0000000000000000     
   312.00000000000000       -0.0000000000000000     
   313.00000000000000       -0.0000000000000000     
   314.00000000000000       -0.0000000000000000     
   315.00000000000000       -0.0000000000000000     
   316.00000000000000       -0.0000000000000000     
   317.00000000000000       -0.0000000000000000     
   318.00000000000000       -0.0000000000000000     
   319.00000000000000       -0.0000000000000000     
   320.00000000000000       -0.0000000000000000     
   321.00000000000000       -0.0000000000000000     
   322.00000000000000       -0.0000000000000000     
   323.00000000000000       -0.0000000000000000     
   324.00000000000000       -0.0000000000000000     
   325.00000000000000       -0.0000000000000000     
   326.00000000000000       -0.0000000000000000     
   327.00000000000000       -0.0000000000000000     
   328.00000000000000       -0.0000000000000000     
   329.00000000000000       -0.0000000000000000     
   330.00000000000000       -0.0000000000000000     
   331.00000000000000       -0.0000000000000000     
   332.00000000000000       -0.0000000000000000     
   333.00000000000000       -0.0000000000000000     
   334.00000000000000       -0.0000000000000000     
   335.00000000000000       -0.0000000000000000     
   336.00000000000000       -0.0000000000000000     
   337.00000000000000       -0.0000000000000000     
   338.00000000000000       -0.0000000000000000     
   339.00000000000000       -0.0000000000000000     
   340.00000000000000       -0.0000000000000000     
   341.00000000000000       -0.0000000000000000     
   342.00000000000000       -0.0000000000000000     
   343.00000000000000       -0.0000000000000000     
   344.00000000000000       -0.0000000000000000     
   345.00000000000000       -0.0000000000000000     
   346.00000000000000       -0.0000000000000000     
   347.00000000000000       -0.0000000000000000     
   348.00000000000000       -0.0000000000000000     
   349.00000000000000       -0.0000000000000000     
   350.00000000000000       -0.0000000000000000     
   351.00000000000000       -0.0000000000000000     
   352.00000000000000       -0.0000000000000000     
   353.00000000000000       -0.0000000000000000     
   354.00000000000000       -0.0000000000000000     
   355.00000000000000       -0.0000000000000000     
   356.00000000000000       -0.0000000000000000     
   357.00000000000000       -0.0000000000000000     
   358.00000000000000       -0.0000000000000000     
   359.00000000000000       -0.0000000000000000     
   360.00000000000000       -0.0000000000000000     
   361.00000000000000       -0.0000000000000000     
   362.00000000000000       -0.0000000000000000     
   363.00000000000000       -0.0000000000000000     
   364.00000000000000       -0.0000000000000000     
   365.00000000000000       -0.0000000000000000     
   366.00000000000000       -0.0000000000000000     
   367.00000000000000       -0.0000000000000000     
   368.00000000000000       -0.0000000000000000     
   369.00000000000000       -0.0000000000000000     
   370.00000000000000       -0.0000000000000000     
   371.00000000000000       -0.0000000000000000     
   372.00000000000000       -0.0000000000000000     
   373.00000000000000       -0.0000000000000000     
   374.00000000000000       -0.0000000000000000     
   375.00000000000000       -0.0000000000000000     
   376.00000000000000       -0.0000000000000000     
