# Recoil energy (kev)        Event rate (events/gev)
   1.0000000000000000       0.71282218261487063     
   2.0000000000000000        3.2833745562044623     
   3.0000000000000000        7.6160742895463054     
   4.0000000000000000        13.569152997647516     
   5.0000000000000000        21.005967570005218     
   6.0000000000000000        29.795730517803445     
   7.0000000000000000        39.812759716863191     
   8.0000000000000000        50.936828908214110     
   9.0000000000000000        63.053007510064511     
   10.000000000000000        76.051662871572717     
   11.000000000000000        89.828318834100116     
   12.000000000000000        104.28361964526233     
   13.000000000000000        119.32322470219823     
   14.000000000000000        134.85770008857745     
   15.000000000000000        150.80241322240255     
   16.000000000000000        167.07741427373523     
   17.000000000000000        183.60740332021641     
   18.000000000000000        200.32128692233840     
   19.000000000000000        217.15262090283730     
   20.000000000000000        234.03895872552258     
   21.000000000000000        250.92184901801511     
   22.000000000000000        267.74694715929616     
   23.000000000000000        284.46374985429657     
   24.000000000000000        301.02470137966037     
   25.000000000000000        317.38689573943662     
   26.000000000000000        333.51001265179565     
   27.000000000000000        349.35722808102179     
   28.000000000000000        364.89492125625776     
   29.000000000000000        380.09197947278477     
   30.000000000000000        394.92087535642918     
   31.000000000000000        409.35634609830038     
   32.000000000000000        423.37575125200021     
   33.000000000000000        436.95901947438716     
   34.000000000000000        450.08880413616743     
   35.000000000000000        462.74921758946397     
   36.000000000000000        474.92664454098349     
   37.000000000000000        486.61034285720569     
   38.000000000000000        497.79042180328230     
   39.000000000000000        508.45993996702128     
   40.000000000000000        518.61238631286733     
   41.000000000000000        528.24335157413077     
   42.000000000000000        537.35053947351946     
   43.000000000000000        545.93199202594531     
   44.000000000000000        553.98794593389289     
   45.000000000000000        561.51944312117894     
   46.000000000000000        568.52853236132091     
   47.000000000000000        575.01832467411464     
   48.000000000000000        580.99291691850874     
   49.000000000000000        586.45731840710312     
   50.000000000000000        591.41738050415677     
   51.000000000000000        595.87972916358683     
   52.000000000000000        599.85170035858062     
   53.000000000000000        603.34127835019603     
   54.000000000000000        606.35703673864555     
   55.000000000000000        608.90808223770273     
   56.000000000000000        611.00400110997623     
   57.000000000000000        612.65480819846209     
   58.000000000000000        613.87089848787173     
   59.000000000000000        614.66300112769909     
   60.000000000000000        615.04213584776835     
   61.000000000000000        615.01957169611103     
   62.000000000000000        614.60678802840414     
   63.000000000000000        613.81543767784274     
   64.000000000000000        612.65731223420107     
   65.000000000000000        611.14430936093822     
   66.000000000000000        609.28840207947792     
   67.000000000000000        607.10160995027638     
   68.000000000000000        604.59597208091475     
   69.000000000000000        601.78352189220936     
   70.000000000000000        598.67626357424285     
   71.000000000000000        595.28615016521701     
   72.000000000000000        591.62506318715486     
   73.000000000000000        587.70479377365984     
   74.000000000000000        583.53702522620961     
   75.000000000000000        579.13331693683699     
   76.000000000000000        574.50508961640003     
   77.000000000000000        569.66361176912551     
   78.000000000000000        564.61998735557131     
   79.000000000000000        559.38514458767497     
   80.000000000000000        553.96982580109920     
   81.000000000000000        548.38457835163774     
   82.000000000000000        542.63974648400631     
   83.000000000000000        536.74546412293228     
   84.000000000000000        530.71164853804271     
   85.000000000000000        524.54799483558270     
   86.000000000000000        518.26397123162315     
   87.000000000000000        511.86881506292468     
   88.000000000000000        505.37152949320358     
   89.000000000000000        498.78088087404319     
   90.000000000000000        492.10539672122616     
   91.000000000000000        485.35336426873573     
   92.000000000000000        478.53282956414245     
   93.000000000000000        471.65159707051163     
   94.000000000000000        464.71722974140511     
   95.000000000000000        457.73704953690776     
   96.000000000000000        450.71813834995817     
   97.000000000000000        443.66733931360295     
   98.000000000000000        436.59125846104655     
   99.000000000000000        429.49626671166266     
   100.00000000000000        422.38850215732413     
   101.00000000000000        415.27387262460132     
   102.00000000000000        408.15805848955387     
   103.00000000000000        401.04651572292090     
   104.00000000000000        393.94447914464968     
   105.00000000000000        386.85696586771672     
   106.00000000000000        379.78877891222299     
   107.00000000000000        372.74451097175069     
   108.00000000000000        365.72854831488252     
   109.00000000000000        358.74507480574982     
   110.00000000000000        351.79807602831301     
   111.00000000000000        344.89134349997892     
   112.00000000000000        338.02847896093499     
   113.00000000000000        331.21289872642666     
   114.00000000000000        324.44783808990644     
   115.00000000000000        317.73635576576100     
   116.00000000000000        311.08133836099898     
   117.00000000000000        304.48550486596838     
   118.00000000000000        297.95141115480624     
   119.00000000000000        291.48145448695158     
   120.00000000000000        285.07787800163726     
   121.00000000000000        278.74277519784573     
   122.00000000000000        272.47809439275511     
   123.00000000000000        266.28564315220291     
   124.00000000000000        260.16709268722195     
   125.00000000000000        254.12398221111903     
   126.00000000000000        248.15772325207249     
   127.00000000000000        242.26960391659784     
   128.00000000000000        236.46079309967047     
   129.00000000000000        230.73234463765894     
   130.00000000000000        225.08520140059628     
   131.00000000000000        219.52019932065215     
   132.00000000000000        214.03807135400677     
   133.00000000000000        208.63945137363274     
   134.00000000000000        203.32487799077572     
   135.00000000000000        198.09479830321430     
   136.00000000000000        192.94957156862969     
   137.00000000000000        187.88947280166983     
   138.00000000000000        182.91469629351303     
   139.00000000000000        178.02535905296347     
   140.00000000000000        173.22150416830755     
   141.00000000000000        168.50310408936534     
   142.00000000000000        163.87006382931682     
   143.00000000000000        159.32222408609880     
   144.00000000000000        154.85936428328088     
   145.00000000000000        150.48120553049685     
   146.00000000000000        146.18741350363780     
   147.00000000000000        141.97760124514198     
   148.00000000000000        137.85133188482266     
   149.00000000000000        133.80812128179574     
   150.00000000000000        129.84744058816025     
   151.00000000000000        125.96871873517469     
   152.00000000000000        122.17134484276099     
   153.00000000000000        118.45467055324237     
   154.00000000000000        114.81801229028422     
   155.00000000000000        111.26065344408151     
   156.00000000000000        107.78184648388284     
   157.00000000000000        104.38081499899715     
   158.00000000000000        101.05675566947467     
   159.00000000000000        97.808840167687336     
   160.00000000000000        94.636216992079980     
   161.00000000000000        91.538013234386668     
   162.00000000000000        88.513336281632064     
   163.00000000000000        85.561275454263281     
   164.00000000000000        82.680903581776548     
   165.00000000000000        79.871278517213895     
   166.00000000000000        77.131444591918623     
   167.00000000000000        74.460434011947711     
   168.00000000000000        71.857268197539781     
   169.00000000000000        69.320959067045152     
   170.00000000000000        66.850510266721471     
   171.00000000000000        64.444918347793262     
   172.00000000000000        62.103173892176599     
   173.00000000000000        59.824262588252630     
   174.00000000000000        57.607166258075040     
   175.00000000000000        55.450863837378101     
   176.00000000000000        53.354332309745097     
   177.00000000000000        51.316547596280166     
   178.00000000000000        49.336485402112892     
   179.00000000000000        47.413122021047243     
   180.00000000000000        45.545435099653481     
   181.00000000000000        43.732404362073765     
   182.00000000000000        41.973012296807468     
   183.00000000000000        40.266244806706482     
   184.00000000000000        38.611091823399704     
   185.00000000000000        37.006547887344603     
   186.00000000000000        35.451612694673791     
   187.00000000000000        33.945291611993014     
   188.00000000000000        32.486596160252951     
   189.00000000000000        31.074544468803868     
   190.00000000000000        29.708161700711777     
   191.00000000000000        28.386480450393627     
   192.00000000000000        27.108541114606744     
   193.00000000000000        25.873392237797972     
   194.00000000000000        24.680090832803792     
   195.00000000000000        23.527702677857555     
   196.00000000000000        22.415302590843648     
   197.00000000000000        21.341974681712060     
   198.00000000000000        20.306812583941621     
   199.00000000000000        19.308919665918431     
   200.00000000000000        18.347409223073072     
   201.00000000000000        17.421404651591789     
   202.00000000000000        16.530039604501422     
   203.00000000000000        15.672458130898795     
   204.00000000000000        14.847814799074769     
   205.00000000000000        14.055274804261408     
   206.00000000000000        13.294014061708284     
   207.00000000000000        12.563219285771284     
   208.00000000000000        11.862088055676777     
   209.00000000000000        11.189828868604334     
   210.00000000000000        10.545661180706531     
   211.00000000000000        9.9288154366687404     
   212.00000000000000        9.3385330883888482     
   213.00000000000000        8.7740666033382357     
   214.00000000000000        8.2346794631459055     
   215.00000000000000        7.7196461529300624     
   216.00000000000000        7.2282521418811037     
   217.00000000000000        6.7597938555838875     
   218.00000000000000        6.3135786405482470     
   219.00000000000000        5.8889247214005040     
   220.00000000000000        5.4851611511720435     
   221.00000000000000        5.1016277551031459     
   222.00000000000000        4.7376750683667419     
   223.00000000000000        4.3926642680992209     
   224.00000000000000        4.0659671001114441     
   225.00000000000000        3.7569658006381825     
   226.00000000000000        3.4650530134689403     
   227.00000000000000        3.1896317027915506     
   228.00000000000000        2.9301150620632277     
   229.00000000000000        2.6859264192131609     
   230.00000000000000        2.4564991384670054     
   231.00000000000000        2.2412765190710484     
   232.00000000000000        2.0397116911820463     
   233.00000000000000        1.8512675091773243     
   234.00000000000000        1.6754164426277045     
   235.00000000000000        1.5116404651658626     
   236.00000000000000        1.3594309414710357     
   237.00000000000000        1.2182885125817544     
   238.00000000000000        1.0877229797375980     
   239.00000000000000       0.96725318694165352     
   240.00000000000000       0.85640690242612638     
   241.00000000000000       0.75472069919457385     
   242.00000000000000       0.66173983480532805     
   243.00000000000000       0.57701813055269080     
   244.00000000000000       0.50011785019412558     
   245.00000000000000       0.43060957836390906     
   246.00000000000000       0.36807209880649139     
   247.00000000000000       0.31209227255522254     
   248.00000000000000       0.26226491617525804     
   249.00000000000000       0.21819268018291879     
   250.00000000000000       0.17948592774713321     
   251.00000000000000       0.14576261377242652     
   252.00000000000000       0.11664816445706723     
   253.00000000000000        9.1775357414056874E-002
   254.00000000000000        7.0784202437362415E-002
   255.00000000000000        5.3321822990379859E-002
   256.00000000000000        3.9042338488479163E-002
   257.00000000000000        2.7606747442862779E-002
   258.00000000000000        1.8682811528017543E-002
   259.00000000000000        1.1944940630801265E-002
   260.00000000000000        7.0740789348053400E-003
   261.00000000000000        3.7575920895829788E-003
   262.00000000000000        1.6891555104394547E-003
   263.00000000000000        5.6864385068598658E-004
   264.00000000000000        1.0202168474087391E-004
   265.00000000000000        1.2354370145393286E-006
   266.00000000000000       -0.0000000000000000     
   267.00000000000000       -0.0000000000000000     
   268.00000000000000       -0.0000000000000000     
   269.00000000000000       -0.0000000000000000     
   270.00000000000000       -0.0000000000000000     
   271.00000000000000       -0.0000000000000000     
   272.00000000000000       -0.0000000000000000     
   273.00000000000000       -0.0000000000000000     
   274.00000000000000       -0.0000000000000000     
   275.00000000000000       -0.0000000000000000     
   276.00000000000000       -0.0000000000000000     
   277.00000000000000       -0.0000000000000000     
   278.00000000000000       -0.0000000000000000     
   279.00000000000000       -0.0000000000000000     
   280.00000000000000       -0.0000000000000000     
   281.00000000000000       -0.0000000000000000     
   282.00000000000000       -0.0000000000000000     
   283.00000000000000       -0.0000000000000000     
   284.00000000000000       -0.0000000000000000     
   285.00000000000000       -0.0000000000000000     
   286.00000000000000       -0.0000000000000000     
   287.00000000000000       -0.0000000000000000     
   288.00000000000000       -0.0000000000000000     
   289.00000000000000       -0.0000000000000000     
   290.00000000000000       -0.0000000000000000     
   291.00000000000000       -0.0000000000000000     
   292.00000000000000       -0.0000000000000000     
   293.00000000000000       -0.0000000000000000     
   294.00000000000000       -0.0000000000000000     
   295.00000000000000       -0.0000000000000000     
   296.00000000000000       -0.0000000000000000     
   297.00000000000000       -0.0000000000000000     
   298.00000000000000       -0.0000000000000000     
   299.00000000000000       -0.0000000000000000     
   300.00000000000000       -0.0000000000000000     
   301.00000000000000       -0.0000000000000000     
   302.00000000000000       -0.0000000000000000     
   303.00000000000000       -0.0000000000000000     
   304.00000000000000       -0.0000000000000000     
   305.00000000000000       -0.0000000000000000     
   306.00000000000000       -0.0000000000000000     
   307.00000000000000       -0.0000000000000000     
   308.00000000000000       -0.0000000000000000     
   309.00000000000000       -0.0000000000000000     
   310.00000000000000       -0.0000000000000000     
   311.00000000000000       -0.0000000000000000     
   312.00000000000000       -0.0000000000000000     
   313.00000000000000       -0.0000000000000000     
   314.00000000000000       -0.0000000000000000     
   315.00000000000000       -0.0000000000000000     
   316.00000000000000       -0.0000000000000000     
   317.00000000000000       -0.0000000000000000     
   318.00000000000000       -0.0000000000000000     
   319.00000000000000       -0.0000000000000000     
   320.00000000000000       -0.0000000000000000     
   321.00000000000000       -0.0000000000000000     
   322.00000000000000       -0.0000000000000000     
   323.00000000000000       -0.0000000000000000     
   324.00000000000000       -0.0000000000000000     
   325.00000000000000       -0.0000000000000000     
   326.00000000000000       -0.0000000000000000     
   327.00000000000000       -0.0000000000000000     
   328.00000000000000       -0.0000000000000000     
   329.00000000000000       -0.0000000000000000     
   330.00000000000000       -0.0000000000000000     
   331.00000000000000       -0.0000000000000000     
   332.00000000000000       -0.0000000000000000     
   333.00000000000000       -0.0000000000000000     
   334.00000000000000       -0.0000000000000000     
   335.00000000000000       -0.0000000000000000     
   336.00000000000000       -0.0000000000000000     
   337.00000000000000       -0.0000000000000000     
   338.00000000000000       -0.0000000000000000     
   339.00000000000000       -0.0000000000000000     
   340.00000000000000       -0.0000000000000000     
   341.00000000000000       -0.0000000000000000     
   342.00000000000000       -0.0000000000000000     
   343.00000000000000       -0.0000000000000000     
   344.00000000000000       -0.0000000000000000     
   345.00000000000000       -0.0000000000000000     
   346.00000000000000       -0.0000000000000000     
   347.00000000000000       -0.0000000000000000     
   348.00000000000000       -0.0000000000000000     
   349.00000000000000       -0.0000000000000000     
   350.00000000000000       -0.0000000000000000     
   351.00000000000000       -0.0000000000000000     
   352.00000000000000       -0.0000000000000000     
   353.00000000000000       -0.0000000000000000     
   354.00000000000000       -0.0000000000000000     
   355.00000000000000       -0.0000000000000000     
   356.00000000000000       -0.0000000000000000     
   357.00000000000000       -0.0000000000000000     
   358.00000000000000       -0.0000000000000000     
   359.00000000000000       -0.0000000000000000     
   360.00000000000000       -0.0000000000000000     
   361.00000000000000       -0.0000000000000000     
   362.00000000000000       -0.0000000000000000     
   363.00000000000000       -0.0000000000000000     
   364.00000000000000       -0.0000000000000000     
   365.00000000000000       -0.0000000000000000     
   366.00000000000000       -0.0000000000000000     
   367.00000000000000       -0.0000000000000000     
   368.00000000000000       -0.0000000000000000     
   369.00000000000000       -0.0000000000000000     
   370.00000000000000       -0.0000000000000000     
   371.00000000000000       -0.0000000000000000     
   372.00000000000000       -0.0000000000000000     
   373.00000000000000       -0.0000000000000000     
   374.00000000000000       -0.0000000000000000     
   375.00000000000000       -0.0000000000000000     
   376.00000000000000       -0.0000000000000000     
