# Recoil energy (kev)        Event rate (events/gev)
   1.0000000000000000        418.04713213911026     
   2.0000000000000000        407.12548017474518     
   3.0000000000000000        396.40687328412827     
   4.0000000000000000        385.89209603466452     
   5.0000000000000000        375.58153895138338     
   6.0000000000000000        365.47523555201820     
   7.0000000000000000        355.57293792310890     
   8.0000000000000000        345.87423153495814     
   9.0000000000000000        336.37823475594314     
   10.000000000000000        327.08407831544497     
   11.000000000000000        317.99048369495898     
   12.000000000000000        309.09606003800246     
   13.000000000000000        300.39923249033313     
   14.000000000000000        291.89824060522261     
   15.000000000000000        283.59116861434660     
   16.000000000000000        275.47595332294304     
   17.000000000000000        267.55052749799086     
   18.000000000000000        259.81235392534523     
   19.000000000000000        252.25927238831090     
   20.000000000000000        244.88874442305490     
   21.000000000000000        237.69810907141635     
   22.000000000000000        230.68482210297486     
   23.000000000000000        223.84628466565840     
   24.000000000000000        217.17930345390320     
   25.000000000000000        210.68151515853890     
   26.000000000000000        204.34990234339065     
   27.000000000000000        198.18159992589966     
   28.000000000000000        192.17375594540962     
   29.000000000000000        186.32325365454875     
   30.000000000000000        180.62733628546457     
   31.000000000000000        175.08299679067522     
   32.000000000000000        169.68724321817996     
   33.000000000000000        164.43712398005735     
   34.000000000000000        159.32981644282276     
   35.000000000000000        154.36222022508230     
   36.000000000000000        149.53132438660700     
   37.000000000000000        144.83434221923631     
   38.000000000000000        140.26840206612491     
   39.000000000000000        135.83063849575220     
   40.000000000000000        131.51809022572832     
   41.000000000000000        127.32791130211245     
   42.000000000000000        123.25742240779417     
   43.000000000000000        119.30372617810019     
   44.000000000000000        115.46415472635454     
   45.000000000000000        111.73597924257297     
   46.000000000000000        108.11648373560769     
   47.000000000000000        104.60299515895566     
   48.000000000000000        101.19288377419771     
   49.000000000000000        97.883563478137077     
   50.000000000000000        94.672492088958506     
   51.000000000000000        91.557171586258917     
   52.000000000000000        88.535148303745245     
   53.000000000000000        85.604013072164918     
   54.000000000000000        82.761401312121578     
   55.000000000000000        80.004993077756041     
   56.000000000000000        77.332513050359310     
   57.000000000000000        74.741730484268615     
   58.000000000000000        72.230459106080957     
   59.000000000000000        69.796556968552935     
   60.000000000000000        67.437926261926663     
   61.000000000000000        65.152513083522834     
   62.000000000000000        62.938307168964286     
   63.000000000000000        60.793341586122267     
   64.000000000000000        58.715692394865748     
   65.000000000000000        56.703478274300956     
   66.000000000000000        54.754860120089688     
   67.000000000000000        52.868040613388359     
   68.000000000000000        51.041263764646807     
   69.000000000000000        49.272814433043173     
   70.000000000000000        47.561017824730321     
   71.000000000000000        45.904238971116520     
   72.000000000000000        44.300882189373802     
   73.000000000000000        42.749390526897990     
   74.000000000000000        41.248245191568053     
   75.000000000000000        39.795964969374559     
   76.000000000000000        38.391105630963857     
   77.000000000000000        37.032259328777243     
   78.000000000000000        35.718053985950533     
   79.000000000000000        34.447152678665120     
   80.000000000000000        33.218253012996691     
   81.000000000000000        32.030086497388567     
   82.000000000000000        30.881417912220630     
   83.000000000000000        29.771044677329261     
   84.000000000000000        28.697796218414965     
   85.000000000000000        27.660533333398956     
   86.000000000000000        26.658147559714223     
   87.000000000000000        25.689560543017137     
   88.000000000000000        24.753723408450924     
   89.000000000000000        23.849616134971342     
   90.000000000000000        22.976246933392556     
   91.000000000000000        22.132651628819197     
   92.000000000000000        21.317893048001679     
   93.000000000000000        20.531060412178491     
   94.000000000000000        19.771268735770853     
   95.000000000000000        19.037658231451058     
   96.000000000000000        18.329393721987650     
   97.000000000000000        17.645664059112779     
   98.000000000000000        16.985681549875959     
   99.000000000000000        16.348681390668855     
   100.00000000000000        15.733921109247651     
   101.00000000000000        15.140680014885508     
   102.00000000000000        14.568258657009926     
   103.00000000000000        14.015978292332063     
   104.00000000000000        13.483180360718221     
   105.00000000000000        12.969225969933049     
   106.00000000000000        12.473495389284667     
   107.00000000000000        11.995387552356840     
   108.00000000000000        11.534319568775766     
   109.00000000000000        11.089726245214653     
   110.00000000000000        10.661059615492736     
   111.00000000000000        10.247788479922127     
   112.00000000000000        9.8493979538277596     
   113.00000000000000        9.4653890252815920     
   114.00000000000000        9.0952781219496757     
   115.00000000000000        8.7385966871330538     
   116.00000000000000        8.3948907648188698     
   117.00000000000000        8.0637205938074690     
   118.00000000000000        7.7446602107726932     
   119.00000000000000        7.4372970621970405     
   120.00000000000000        7.1412316251416872     
   121.00000000000000        6.8560770367089745     
   122.00000000000000        6.5814587321257472     
   123.00000000000000        6.3170140913512043     
   124.00000000000000        6.0623920941130001     
   125.00000000000000        5.8172529832136908     
   126.00000000000000        5.5812679360644166     
   127.00000000000000        5.3541187442885914     
   128.00000000000000        5.1354975012407218     
   129.00000000000000        4.9251062973861828     
   130.00000000000000        4.7226569233938029     
   131.00000000000000        4.5278705807547999     
   132.00000000000000        4.3404775998978682     
   133.00000000000000        4.1602171655727638     
   134.00000000000000        3.9868370494401923     
   135.00000000000000        3.8200933496940501     
   136.00000000000000        3.6597502376026747     
   137.00000000000000        3.5055797108136866     
   138.00000000000000        3.3573613533080771     
   139.00000000000000        3.2148821018730391     
   140.00000000000000        3.0779360189230096     
   141.00000000000000        2.9463240715810084     
   142.00000000000000        2.8198539168506040     
   143.00000000000000        2.6983396927734398     
   144.00000000000000        2.5816018154185563     
   145.00000000000000        2.4694667815871862     
   146.00000000000000        2.3617669770996512     
   147.00000000000000        2.2583404905301001     
   148.00000000000000        2.1590309322802308     
   149.00000000000000        2.0636872588362754     
   150.00000000000000        1.9721636021152775     
   151.00000000000000        1.8843191037694567     
   152.00000000000000        1.8000177543179336     
   153.00000000000000        1.7191282369898893     
   154.00000000000000        1.6415237761813013     
   155.00000000000000        1.5670819903811071     
   156.00000000000000        1.4956847494753269     
   157.00000000000000        1.4272180363037434     
   158.00000000000000        1.3615718123721896     
   159.00000000000000        1.2986398876005674     
   160.00000000000000        1.2383197940066288     
   161.00000000000000        1.1805126632241527     
   162.00000000000000        1.1251231077496779     
   163.00000000000000        1.0720591058154083     
   164.00000000000000        1.0212318898006567     
   165.00000000000000       0.97255583807680457     
   166.00000000000000       0.92594837018883047     
   167.00000000000000       0.88132984529766678     
   168.00000000000000       0.83862346377475272     
   169.00000000000000       0.79775517187189404     
   170.00000000000000       0.75865356937920003     
   171.00000000000000       0.72124982017936679     
   172.00000000000000       0.68547756562995332     
   173.00000000000000       0.65127284067917934     
   174.00000000000000       0.61857399264333257     
   175.00000000000000       0.58732160257405930     
   176.00000000000000       0.55745840912806910     
   177.00000000000000       0.52892923487831933     
   178.00000000000000       0.50168091498889889     
   179.00000000000000       0.47566222818833942     
   180.00000000000000       0.45082382996642406     
   181.00000000000000       0.42711818793848733     
   182.00000000000000       0.40449951930507005     
   183.00000000000000       0.38292373034631072     
   184.00000000000000       0.36234835789269448     
   185.00000000000000       0.34273251270829125     
   186.00000000000000       0.32403682473169232     
   187.00000000000000       0.30622339011718364     
   188.00000000000000       0.28925572002131994     
   189.00000000000000       0.27309869108121076     
   190.00000000000000       0.25771849753281406     
   191.00000000000000       0.24308260491907166     
   192.00000000000000       0.22915970533693297     
   193.00000000000000       0.21591967417877941     
   194.00000000000000       0.20333352831770396     
   195.00000000000000       0.19137338569458567     
   196.00000000000000       0.18001242626125277     
   197.00000000000000       0.16922485423827677     
   198.00000000000000       0.15898586164457035     
   199.00000000000000       0.14927159305940552     
   200.00000000000000       0.14005911157757472     
   201.00000000000000       0.13132636591968411     
   202.00000000000000       0.12305215866023521     
   203.00000000000000       0.11521611553803775     
   204.00000000000000       0.10779865581446309     
   205.00000000000000       0.10078096364495713     
   206.00000000000000        9.4144960431700730E-002
   207.00000000000000        8.7873278125501428E-002
   208.00000000000000        8.1949233445932759E-002
   209.00000000000000        7.6356802989768185E-002
   210.00000000000000        7.1080599198935862E-002
   211.00000000000000        6.6105847159510608E-002
   212.00000000000000        6.1418362205085279E-002
   213.00000000000000        5.7004528296999868E-002
   214.00000000000000        5.2851277156749019E-002
   215.00000000000000        4.8946068125558066E-002
   216.00000000000000        4.5276868726317733E-002
   217.00000000000000        4.1832135905498564E-002
   218.00000000000000        3.8600797931750572E-002
   219.00000000000000        3.5572236929341715E-002
   220.00000000000000        3.2736272025712457E-002
   221.00000000000000        3.0083143091761771E-002
   222.00000000000000        2.7603495055696009E-002
   223.00000000000000        2.5288362770595936E-002
   224.00000000000000        2.3129156417318473E-002
   225.00000000000000        2.1117647424577848E-002
   226.00000000000000        1.9245954888588025E-002
   227.00000000000000        1.7506532475485587E-002
   228.00000000000000        1.5892155789881079E-002
   229.00000000000000        1.4395910193932710E-002
   230.00000000000000        1.3011179061329188E-002
   231.00000000000000        1.1731632451391425E-002
   232.00000000000000        1.0551216188986549E-002
   233.00000000000000        9.4641413361262802E-003
   234.00000000000000        8.4648740419610395E-003
   235.00000000000000        7.5481257580351331E-003
   236.00000000000000        6.7088438062289438E-003
   237.00000000000000        5.9422022871447946E-003
   238.00000000000000        5.2435933172375604E-003
   239.00000000000000        4.6086185831735165E-003
   240.00000000000000        4.0330812024733775E-003
   241.00000000000000        3.5129778797329566E-003
   242.00000000000000        3.0444913481374840E-003
   243.00000000000000        2.6239830862765604E-003
   244.00000000000000        2.2479863006562000E-003
   245.00000000000000        1.9131991645839354E-003
   246.00000000000000        1.6164783044182308E-003
   247.00000000000000        1.3548325245082379E-003
   248.00000000000000        1.1254167624014891E-003
   249.00000000000000        9.2552626620874274E-004
   250.00000000000000        7.5259098627370380E-004
   251.00000000000000        6.0417017357741341E-004
   252.00000000000000        4.7794717754214532E-004
   253.00000000000000        3.7172443616750894E-004
   254.00000000000000        2.8341865166997511E-004
   255.00000000000000        2.1105614501543948E-004
   256.00000000000000        1.5276838298071210E-004
   257.00000000000000        1.0678767158183598E-004
   258.00000000000000        7.1443009929288403E-005
   259.00000000000000        4.5156098767339541E-005
   260.00000000000000        2.6437498156898688E-005
   261.00000000000000        1.3882928950414330E-005
   262.00000000000000        6.1697128935674677E-006
   263.00000000000000        2.0533463660373564E-006
   264.00000000000000        3.6420294818765787E-007
   265.00000000000000        4.3601666250693504E-009
   266.00000000000000       -0.0000000000000000     
   267.00000000000000       -0.0000000000000000     
   268.00000000000000       -0.0000000000000000     
   269.00000000000000       -0.0000000000000000     
   270.00000000000000       -0.0000000000000000     
   271.00000000000000       -0.0000000000000000     
   272.00000000000000       -0.0000000000000000     
   273.00000000000000       -0.0000000000000000     
   274.00000000000000       -0.0000000000000000     
   275.00000000000000       -0.0000000000000000     
   276.00000000000000       -0.0000000000000000     
   277.00000000000000       -0.0000000000000000     
   278.00000000000000       -0.0000000000000000     
   279.00000000000000       -0.0000000000000000     
   280.00000000000000       -0.0000000000000000     
   281.00000000000000       -0.0000000000000000     
   282.00000000000000       -0.0000000000000000     
   283.00000000000000       -0.0000000000000000     
   284.00000000000000       -0.0000000000000000     
   285.00000000000000       -0.0000000000000000     
   286.00000000000000       -0.0000000000000000     
   287.00000000000000       -0.0000000000000000     
   288.00000000000000       -0.0000000000000000     
   289.00000000000000       -0.0000000000000000     
   290.00000000000000       -0.0000000000000000     
   291.00000000000000       -0.0000000000000000     
   292.00000000000000       -0.0000000000000000     
   293.00000000000000       -0.0000000000000000     
   294.00000000000000       -0.0000000000000000     
   295.00000000000000       -0.0000000000000000     
   296.00000000000000       -0.0000000000000000     
   297.00000000000000       -0.0000000000000000     
   298.00000000000000       -0.0000000000000000     
   299.00000000000000       -0.0000000000000000     
   300.00000000000000       -0.0000000000000000     
   301.00000000000000       -0.0000000000000000     
   302.00000000000000       -0.0000000000000000     
   303.00000000000000       -0.0000000000000000     
   304.00000000000000       -0.0000000000000000     
   305.00000000000000       -0.0000000000000000     
   306.00000000000000       -0.0000000000000000     
   307.00000000000000       -0.0000000000000000     
   308.00000000000000       -0.0000000000000000     
   309.00000000000000       -0.0000000000000000     
   310.00000000000000       -0.0000000000000000     
   311.00000000000000       -0.0000000000000000     
   312.00000000000000       -0.0000000000000000     
   313.00000000000000       -0.0000000000000000     
   314.00000000000000       -0.0000000000000000     
   315.00000000000000       -0.0000000000000000     
   316.00000000000000       -0.0000000000000000     
   317.00000000000000       -0.0000000000000000     
   318.00000000000000       -0.0000000000000000     
   319.00000000000000       -0.0000000000000000     
   320.00000000000000       -0.0000000000000000     
   321.00000000000000       -0.0000000000000000     
   322.00000000000000       -0.0000000000000000     
   323.00000000000000       -0.0000000000000000     
   324.00000000000000       -0.0000000000000000     
   325.00000000000000       -0.0000000000000000     
   326.00000000000000       -0.0000000000000000     
   327.00000000000000       -0.0000000000000000     
   328.00000000000000       -0.0000000000000000     
   329.00000000000000       -0.0000000000000000     
   330.00000000000000       -0.0000000000000000     
   331.00000000000000       -0.0000000000000000     
   332.00000000000000       -0.0000000000000000     
   333.00000000000000       -0.0000000000000000     
   334.00000000000000       -0.0000000000000000     
   335.00000000000000       -0.0000000000000000     
   336.00000000000000       -0.0000000000000000     
   337.00000000000000       -0.0000000000000000     
   338.00000000000000       -0.0000000000000000     
   339.00000000000000       -0.0000000000000000     
   340.00000000000000       -0.0000000000000000     
   341.00000000000000       -0.0000000000000000     
   342.00000000000000       -0.0000000000000000     
   343.00000000000000       -0.0000000000000000     
   344.00000000000000       -0.0000000000000000     
   345.00000000000000       -0.0000000000000000     
   346.00000000000000       -0.0000000000000000     
   347.00000000000000       -0.0000000000000000     
   348.00000000000000       -0.0000000000000000     
   349.00000000000000       -0.0000000000000000     
   350.00000000000000       -0.0000000000000000     
   351.00000000000000       -0.0000000000000000     
   352.00000000000000       -0.0000000000000000     
   353.00000000000000       -0.0000000000000000     
   354.00000000000000       -0.0000000000000000     
   355.00000000000000       -0.0000000000000000     
   356.00000000000000       -0.0000000000000000     
   357.00000000000000       -0.0000000000000000     
   358.00000000000000       -0.0000000000000000     
   359.00000000000000       -0.0000000000000000     
   360.00000000000000       -0.0000000000000000     
   361.00000000000000       -0.0000000000000000     
   362.00000000000000       -0.0000000000000000     
   363.00000000000000       -0.0000000000000000     
   364.00000000000000       -0.0000000000000000     
   365.00000000000000       -0.0000000000000000     
   366.00000000000000       -0.0000000000000000     
   367.00000000000000       -0.0000000000000000     
   368.00000000000000       -0.0000000000000000     
   369.00000000000000       -0.0000000000000000     
   370.00000000000000       -0.0000000000000000     
   371.00000000000000       -0.0000000000000000     
   372.00000000000000       -0.0000000000000000     
   373.00000000000000       -0.0000000000000000     
   374.00000000000000       -0.0000000000000000     
   375.00000000000000       -0.0000000000000000     
   376.00000000000000       -0.0000000000000000     
