# Recoil energy (kev)        Event rate (events/gev)
   1.0000000000000000       0.39206089458298593     
   2.0000000000000000       0.76005365099486455     
   3.0000000000000000        1.1049502688326378     
   4.0000000000000000        1.4276964884404388     
   5.0000000000000000        1.7292115183257752     
   6.0000000000000000        2.0103882421531902     
   7.0000000000000000        2.2720933406236261     
   8.0000000000000000        2.5151685887846127     
   9.0000000000000000        2.7404287183270992     
   10.000000000000000        2.9486651233371788     
   11.000000000000000        3.1406428295212323     
   12.000000000000000        3.3171032783014724     
   13.000000000000000        3.4787635910963925     
   14.000000000000000        3.6263171871890094     
   15.000000000000000        3.7604342446922434     
   16.000000000000000        3.8817619454489747     
   17.000000000000000        3.9909261082631939     
   18.000000000000000        4.0885285738262152     
   19.000000000000000        4.1751521342163169     
   20.000000000000000        4.2513575678337006     
   21.000000000000000        4.3176840043090987     
   22.000000000000000        4.3746528385000936     
   23.000000000000000        4.4227647482206036     
   24.000000000000000        4.4625018724314920     
   25.000000000000000        4.4943316134554037     
   26.000000000000000        4.5186815654944805     
   27.000000000000000        4.5359990197988527     
   28.000000000000000        4.5466875343120083     
   29.000000000000000        4.5511424686685444     
   30.000000000000000        4.5497386466450171     
   31.000000000000000        4.5428384894378109     
   32.000000000000000        4.5307913864164142     
   33.000000000000000        4.5139276604314125     
   34.000000000000000        4.4925693866894330     
   35.000000000000000        4.4670169168664593     
   36.000000000000000        4.4375601773497984     
   37.000000000000000        4.4044780206220784     
   38.000000000000000        4.3680371713992532     
   39.000000000000000        4.3284887780361405     
   40.000000000000000        4.2860756862088829     
   41.000000000000000        4.2410277886269405     
   42.000000000000000        4.1935641247234621     
   43.000000000000000        4.1438932812225131     
   44.000000000000000        4.0922139010139205     
   45.000000000000000        4.0387147450558016     
   46.000000000000000        3.9835751472310066     
   47.000000000000000        3.9269654039056792     
   48.000000000000000        3.8690471105820610     
   49.000000000000000        3.8099734897680109     
   50.000000000000000        3.7498897101102204     
   51.000000000000000        3.6889331968504799     
   52.000000000000000        3.6272339336755182     
   53.000000000000000        3.5649147560418419     
   54.000000000000000        3.5020916360663503     
   55.000000000000000        3.4388739590827262     
   56.000000000000000        3.3753647919715051     
   57.000000000000000        3.3116611433791707     
   58.000000000000000        3.2478542159482089     
   59.000000000000000        3.1840296506859525     
   60.000000000000000        3.1202677636052800     
   61.000000000000000        3.0566437747748565     
   62.000000000000000        2.9932280299205445     
   63.000000000000000        2.9300862147230458     
   64.000000000000000        2.8672795619597751     
   65.000000000000000        2.8048650516412668     
   66.000000000000000        2.7428956042943660     
   67.000000000000000        2.6814202675459136     
   68.000000000000000        2.6204843961616962     
   69.000000000000000        2.5601298256960860     
   70.000000000000000        2.5003950399081400     
   71.000000000000000        2.4413153320998866     
   72.000000000000000        2.3829229605322442     
   73.000000000000000        2.3252472980733807     
   74.000000000000000        2.2683149762335182     
   75.000000000000000        2.2121500237390967     
   76.000000000000000        2.1567739997978270     
   77.000000000000000        2.1022061222048070     
   78.000000000000000        2.0484633904380916     
   79.000000000000000        1.9955607038902814     
   80.000000000000000        1.9435109753808346     
   81.000000000000000        1.8923252400914954     
   82.000000000000000        1.8420127600652259     
   83.000000000000000        1.7925811244065757     
   84.000000000000000        1.7440363453190320     
   85.000000000000000        1.6963829501124901     
   86.000000000000000        1.6496240693113062     
   87.000000000000000        1.6037615209909108     
   88.000000000000000        1.5587958914682341     
   89.000000000000000        1.5147266124685534     
   90.000000000000000        1.4715520348885944     
   91.000000000000000        1.4292694992731125     
   92.000000000000000        1.3878754031192482     
   93.000000000000000        1.3473652651203594     
   94.000000000000000        1.3077337864581964     
   95.000000000000000        1.2689749092495337     
   96.000000000000000        1.2310818722506665     
   97.000000000000000        1.1940472639204007     
   98.000000000000000        1.1578630729395152     
   99.000000000000000        1.1225207362819358     
   100.00000000000000        1.0880111849302287     
   101.00000000000000        1.0543248873253845     
   102.00000000000000        1.0214518906382448     
   103.00000000000000       0.98938185994740013     
   104.00000000000000       0.95810411540579921     
   105.00000000000000       0.92760766747588841     
   106.00000000000000       0.89788125031058763     
   107.00000000000000       0.86891335335505238     
   108.00000000000000       0.84069225124177349     
   109.00000000000000       0.81320603204927278     
   110.00000000000000       0.78644262399237252     
   111.00000000000000       0.76038982060977323     
   112.00000000000000       0.73503530451253263     
   113.00000000000000       0.71036666975487772     
   114.00000000000000       0.68637144288671503     
   115.00000000000000       0.66303710274516126     
   116.00000000000000       0.64035109904043552     
   117.00000000000000       0.61830086978953225     
   118.00000000000000       0.59687385764916689     
   119.00000000000000       0.57605752519769959     
   120.00000000000000       0.55583936921390475     
   121.00000000000000       0.53620693399873076     
   122.00000000000000       0.51714782378450475     
   123.00000000000000       0.49864971427436949     
   124.00000000000000       0.48070036335315230     
   125.00000000000000       0.46328762100929610     
   126.00000000000000       0.44639943850597669     
   127.00000000000000       0.43002387683807647     
   128.00000000000000       0.41414911451022735     
   129.00000000000000       0.39876345466978824     
   130.00000000000000       0.38385533162727264     
   131.00000000000000       0.36941331679543782     
   132.00000000000000       0.35542612407701385     
   133.00000000000000       0.34188261472979931     
   134.00000000000000       0.32877180173672094     
   135.00000000000000       0.31608285370727313     
   136.00000000000000       0.30380509833568969     
   137.00000000000000       0.29192802544011004     
   138.00000000000000       0.28044128960598735     
   139.00000000000000       0.26933471245599738     
   140.00000000000000       0.25859828456774869     
   141.00000000000000       0.24822216705964936     
   142.00000000000000       0.23819669286443293     
   143.00000000000000       0.22851236770894826     
   144.00000000000000       0.21915987081801189     
   145.00000000000000       0.21013005535931556     
   146.00000000000000       0.20141394864560483     
   147.00000000000000       0.19300275210962159     
   148.00000000000000       0.18488784106656037     
   149.00000000000000       0.17706076427813600     
   150.00000000000000       0.16951324333166545     
   151.00000000000000       0.16223717184695596     
   152.00000000000000       0.15522461452316685     
   153.00000000000000       0.14846780603722420     
   154.00000000000000       0.14195914980481178     
   155.00000000000000       0.13569121661441402     
   156.00000000000000       0.12965674314435652     
   157.00000000000000       0.12384863037231224     
   158.00000000000000       0.11825994188623244     
   159.00000000000000       0.11288390210522987     
   160.00000000000000       0.10771389441847803     
   161.00000000000000       0.10274345924978100     
   162.00000000000000        9.7966292055051946E-002
   163.00000000000000        9.3376241259562426E-002
   164.00000000000000        8.8967306141440688E-002
   165.00000000000000        8.4733634667547214E-002
   166.00000000000000        8.0669521287515283E-002
   167.00000000000000        7.6769404691416632E-002
   168.00000000000000        7.3027865536195835E-002
   169.00000000000000        6.9439624145733458E-002
   170.00000000000000        6.5999538189092349E-002
   171.00000000000000        6.2702600341251399E-002
   172.00000000000000        5.9543935930350712E-002
   173.00000000000000        5.6518800575243187E-002
   174.00000000000000        5.3622577816894321E-002
   175.00000000000000        5.0850776746960057E-002
   176.00000000000000        4.8199029636647787E-002
   177.00000000000000        4.5663089568766663E-002
   178.00000000000000        4.3238828075672746E-002
   179.00000000000000        4.0922232785637690E-002
   180.00000000000000        3.8709405079981066E-002
   181.00000000000000        3.6596557763148227E-002
   182.00000000000000        3.4580012747750168E-002
   183.00000000000000        3.2656198756431415E-002
   184.00000000000000        3.0821649042289293E-002
   185.00000000000000        2.9072999129426964E-002
   186.00000000000000        2.7406984575097597E-002
   187.00000000000000        2.5820438754768287E-002
   188.00000000000000        2.4310290671322076E-002
   189.00000000000000        2.2873562789497742E-002
   190.00000000000000        2.1507368896571056E-002
   191.00000000000000        2.0208911990174550E-002
   192.00000000000000        1.8975482194063305E-002
   193.00000000000000        1.7804454702545477E-002
   194.00000000000000        1.6693287754210563E-002
   195.00000000000000        1.5639520635512692E-002
   196.00000000000000        1.4640771714688954E-002
   197.00000000000000        1.3694736506424301E-002
   198.00000000000000        1.2799185767609658E-002
   199.00000000000000        1.1951963624475277E-002
   200.00000000000000        1.1150985731325705E-002
   201.00000000000000        1.0394237461046531E-002
   202.00000000000000        9.6797721275038023E-003
   203.00000000000000        9.0057092399060679E-003
   204.00000000000000        8.3702327891575536E-003
   205.00000000000000        7.7715895661868654E-003
   206.00000000000000        7.2080875121974218E-003
   207.00000000000000        6.6780941007490531E-003
   208.00000000000000        6.1800347515471796E-003
   209.00000000000000        5.7123912757835824E-003
   210.00000000000000        5.2737003528443372E-003
   211.00000000000000        4.8625520381734844E-003
   212.00000000000000        4.4775883020555336E-003
   213.00000000000000        4.1175015990585146E-003
   214.00000000000000        3.7810334678558552E-003
   215.00000000000000        3.4669731611293424E-003
   216.00000000000000        3.1741563052342971E-003
   217.00000000000000        2.9014635892950216E-003
   218.00000000000000        2.6478194833826278E-003
   219.00000000000000        2.4121909854144547E-003
   220.00000000000000        2.1935863964026095E-003
   221.00000000000000        1.9910541236693078E-003
   222.00000000000000        1.8036815116360791E-003
   223.00000000000000        1.6305936997873271E-003
   224.00000000000000        1.4709525074002399E-003
   225.00000000000000        1.3239553446280773E-003
   226.00000000000000        1.1888341495178006E-003
   227.00000000000000        1.0648543505396289E-003
   228.00000000000000        9.5131385420165881E-004
   229.00000000000000        8.4754205732104522E-004
   230.00000000000000        7.5289888352054351E-004
   231.00000000000000        6.6677384351836785E-004
   232.00000000000000        5.8858511877845341E-004
   233.00000000000000        5.1777866808849012E-004
   234.00000000000000        4.5382735663335936E-004
   235.00000000000000        3.9623010713271320E-004
   236.00000000000000        3.4451107261312882E-004
   237.00000000000000        2.9821883038706840E-004
   238.00000000000000        2.5692559681333397E-004
   239.00000000000000        2.2022646241648571E-004
   240.00000000000000        1.8773864694581689E-004
   241.00000000000000        1.5910077395794357E-004
   242.00000000000000        1.3397216451077116E-004
   243.00000000000000        1.1203214956066366E-004
   244.00000000000000        9.2979400658909985E-005
   245.00000000000000        7.6531278548055921E-005
   246.00000000000000        6.2423199263406606E-005
   247.00000000000000        5.0408017349867998E-005
   248.00000000000000        4.0255425809363965E-005
   249.00000000000000        3.1751372399259868E-005
   250.00000000000000        2.4697491907589342E-005
   251.00000000000000        1.8910554036281442E-005
   252.00000000000000        1.4221926529189097E-005
   253.00000000000000        1.0477053187322458E-005
   254.00000000000000        7.5349464194227181E-006
   255.00000000000000        5.2676939817781934E-006
   256.00000000000000        3.5599795670050173E-006
   257.00000000000000        2.3086169073772975E-006
   258.00000000000000        1.4220970641810697E-006
   259.00000000000000        8.2014858047041534E-007
   260.00000000000000        4.3331018052119491E-007
   261.00000000000000        2.0251570519464182E-007
   262.00000000000000        7.8690978334004863E-008
   263.00000000000000        2.2362305211537763E-008
   264.00000000000000        3.2763099207079759E-009
   265.00000000000000        3.0824455313122613E-011
   266.00000000000000       -0.0000000000000000     
   267.00000000000000       -0.0000000000000000     
   268.00000000000000       -0.0000000000000000     
   269.00000000000000       -0.0000000000000000     
   270.00000000000000       -0.0000000000000000     
   271.00000000000000       -0.0000000000000000     
   272.00000000000000       -0.0000000000000000     
   273.00000000000000       -0.0000000000000000     
   274.00000000000000       -0.0000000000000000     
   275.00000000000000       -0.0000000000000000     
   276.00000000000000       -0.0000000000000000     
   277.00000000000000       -0.0000000000000000     
   278.00000000000000       -0.0000000000000000     
   279.00000000000000       -0.0000000000000000     
   280.00000000000000       -0.0000000000000000     
   281.00000000000000       -0.0000000000000000     
   282.00000000000000       -0.0000000000000000     
   283.00000000000000       -0.0000000000000000     
   284.00000000000000       -0.0000000000000000     
   285.00000000000000       -0.0000000000000000     
   286.00000000000000       -0.0000000000000000     
   287.00000000000000       -0.0000000000000000     
   288.00000000000000       -0.0000000000000000     
   289.00000000000000       -0.0000000000000000     
   290.00000000000000       -0.0000000000000000     
   291.00000000000000       -0.0000000000000000     
   292.00000000000000       -0.0000000000000000     
   293.00000000000000       -0.0000000000000000     
   294.00000000000000       -0.0000000000000000     
   295.00000000000000       -0.0000000000000000     
   296.00000000000000       -0.0000000000000000     
   297.00000000000000       -0.0000000000000000     
   298.00000000000000       -0.0000000000000000     
   299.00000000000000       -0.0000000000000000     
   300.00000000000000       -0.0000000000000000     
   301.00000000000000       -0.0000000000000000     
   302.00000000000000       -0.0000000000000000     
   303.00000000000000       -0.0000000000000000     
   304.00000000000000       -0.0000000000000000     
   305.00000000000000       -0.0000000000000000     
   306.00000000000000       -0.0000000000000000     
   307.00000000000000       -0.0000000000000000     
   308.00000000000000       -0.0000000000000000     
   309.00000000000000       -0.0000000000000000     
   310.00000000000000       -0.0000000000000000     
   311.00000000000000       -0.0000000000000000     
   312.00000000000000       -0.0000000000000000     
   313.00000000000000       -0.0000000000000000     
   314.00000000000000       -0.0000000000000000     
   315.00000000000000       -0.0000000000000000     
   316.00000000000000       -0.0000000000000000     
   317.00000000000000       -0.0000000000000000     
   318.00000000000000       -0.0000000000000000     
   319.00000000000000       -0.0000000000000000     
   320.00000000000000       -0.0000000000000000     
   321.00000000000000       -0.0000000000000000     
   322.00000000000000       -0.0000000000000000     
   323.00000000000000       -0.0000000000000000     
   324.00000000000000       -0.0000000000000000     
   325.00000000000000       -0.0000000000000000     
   326.00000000000000       -0.0000000000000000     
   327.00000000000000       -0.0000000000000000     
   328.00000000000000       -0.0000000000000000     
   329.00000000000000       -0.0000000000000000     
   330.00000000000000       -0.0000000000000000     
   331.00000000000000       -0.0000000000000000     
   332.00000000000000       -0.0000000000000000     
   333.00000000000000       -0.0000000000000000     
   334.00000000000000       -0.0000000000000000     
   335.00000000000000       -0.0000000000000000     
   336.00000000000000       -0.0000000000000000     
   337.00000000000000       -0.0000000000000000     
   338.00000000000000       -0.0000000000000000     
   339.00000000000000       -0.0000000000000000     
   340.00000000000000       -0.0000000000000000     
   341.00000000000000       -0.0000000000000000     
   342.00000000000000       -0.0000000000000000     
   343.00000000000000       -0.0000000000000000     
   344.00000000000000       -0.0000000000000000     
   345.00000000000000       -0.0000000000000000     
   346.00000000000000       -0.0000000000000000     
   347.00000000000000       -0.0000000000000000     
   348.00000000000000       -0.0000000000000000     
   349.00000000000000       -0.0000000000000000     
   350.00000000000000       -0.0000000000000000     
   351.00000000000000       -0.0000000000000000     
   352.00000000000000       -0.0000000000000000     
   353.00000000000000       -0.0000000000000000     
   354.00000000000000       -0.0000000000000000     
   355.00000000000000       -0.0000000000000000     
   356.00000000000000       -0.0000000000000000     
   357.00000000000000       -0.0000000000000000     
   358.00000000000000       -0.0000000000000000     
   359.00000000000000       -0.0000000000000000     
   360.00000000000000       -0.0000000000000000     
   361.00000000000000       -0.0000000000000000     
   362.00000000000000       -0.0000000000000000     
   363.00000000000000       -0.0000000000000000     
   364.00000000000000       -0.0000000000000000     
   365.00000000000000       -0.0000000000000000     
   366.00000000000000       -0.0000000000000000     
   367.00000000000000       -0.0000000000000000     
   368.00000000000000       -0.0000000000000000     
   369.00000000000000       -0.0000000000000000     
   370.00000000000000       -0.0000000000000000     
   371.00000000000000       -0.0000000000000000     
   372.00000000000000       -0.0000000000000000     
   373.00000000000000       -0.0000000000000000     
   374.00000000000000       -0.0000000000000000     
   375.00000000000000       -0.0000000000000000     
   376.00000000000000       -0.0000000000000000     
