# Recoil energy (kev)        Event rate (events/gev)
   1.0000000000000000        407911.52298132580     
   2.0000000000000000        794392.14458532608     
   3.0000000000000000        1160055.1885443565     
   4.0000000000000000        1505515.2637860384     
   5.0000000000000000        1831386.4694094830     
   6.0000000000000000        2138280.8078826116     
   7.0000000000000000        2426807.0729243406     
   8.0000000000000000        2697570.4757878287     
   9.0000000000000000        2951169.2960626851     
   10.000000000000000        3188197.3700332022     
   11.000000000000000        3409239.7162010171     
   12.000000000000000        3614874.0945905475     
   13.000000000000000        3805669.6269750884     
   14.000000000000000        3982185.9489125330     
   15.000000000000000        4144972.8133514640     
   16.000000000000000        4294569.5200316301     
   17.000000000000000        4431506.6346183838     
   18.000000000000000        4556297.8250745609     
   19.000000000000000        4669453.3544696653     
   20.000000000000000        4771467.1949651577     
   21.000000000000000        4862820.4771355810     
   22.000000000000000        4943986.0871034553     
   23.000000000000000        5015425.4186518379     
   24.000000000000000        5077575.4259166066     
   25.000000000000000        5130880.6869065715     
   26.000000000000000        5175759.6345197586     
   27.000000000000000        5212622.7511267914     
   28.000000000000000        5241869.5263448581     
   29.000000000000000        5263880.5580496620     
   30.000000000000000        5279034.8297330178     
   31.000000000000000        5287692.7705135094     
   32.000000000000000        5290203.4487717636     
   33.000000000000000        5286905.4863633402     
   34.000000000000000        5278130.2530895881     
   35.000000000000000        5264188.4092233116     
   36.000000000000000        5245381.6414832389     
   37.000000000000000        5222010.1583641004     
   38.000000000000000        5194351.7401760258     
   39.000000000000000        5162685.7338017058     
   40.000000000000000        5127267.9833177263     
   41.000000000000000        5088349.6397772161     
   42.000000000000000        5046177.7376913587     
   43.000000000000000        5000979.4061635882     
   44.000000000000000        4952980.6116934307     
   45.000000000000000        4902394.1268432299     
   46.000000000000000        4849422.6375592621     
   47.000000000000000        4794260.2309993906     
   48.000000000000000        4737092.6254786272     
   49.000000000000000        4678097.4003357301     
   50.000000000000000        4617444.2252457021     
   51.000000000000000        4555295.0885391701     
   52.000000000000000        4491804.5241242629     
   53.000000000000000        4427119.8366402900     
   54.000000000000000        4361381.3245043568     
   55.000000000000000        4294722.5005429359     
   56.000000000000000        4227270.3099292312     
   57.000000000000000        4159145.3451750828     
   58.000000000000000        4090462.0579519728     
   59.000000000000000        4021328.9675406069     
   60.000000000000000        3951848.8657314987     
   61.000000000000000        3882119.0180209298     
   62.000000000000000        3812231.3609669916     
   63.000000000000000        3742272.6955895689     
   64.000000000000000        3672324.8767159441     
   65.000000000000000        3602464.9981904030     
   66.000000000000000        3532765.5738816150     
   67.000000000000000        3463294.7144360538     
   68.000000000000000        3394116.2997389454     
   69.000000000000000        3325290.1470567156     
   70.000000000000000        3256872.1748461318     
   71.000000000000000        3188914.5622259933     
   72.000000000000000        3121465.9041167819     
   73.000000000000000        3054571.3620625660     
   74.000000000000000        2988272.8107575304     
   75.000000000000000        2922608.9803069872     
   76.000000000000000        2857615.5942592584     
   77.000000000000000        2793325.5034510936     
   78.000000000000000        2729768.8157146759     
   79.000000000000000        2666973.0214992515     
   80.000000000000000        2604963.1154648396     
   81.000000000000000        2543761.7141093845     
   82.000000000000000        2483389.1694942322     
   83.000000000000000        2423863.6791358609     
   84.000000000000000        2365201.3921344341     
   85.000000000000000        2307416.5116120605     
   86.000000000000000        2250521.3935355465     
   87.000000000000000        2194526.6420001341     
   88.000000000000000        2139441.2010519677     
   89.000000000000000        2085272.4431281169     
   90.000000000000000        2032026.2541937695     
   91.000000000000000        1979707.1156568353     
   92.000000000000000        1928318.1831404483     
   93.000000000000000        1877861.3621940662     
   94.000000000000000        1828337.3810238366     
   95.000000000000000        1779745.8603226778     
   96.000000000000000        1732085.3802801215     
   97.000000000000000        1685353.5448515895     
   98.000000000000000        1639547.0433659549     
   99.000000000000000        1594661.7095497467     
   100.00000000000000        1550692.5780452765     
   101.00000000000000        1507633.9384991562     
   102.00000000000000        1465479.3872966440     
   103.00000000000000        1424221.8770160819     
   104.00000000000000        1383853.7636766199     
   105.00000000000000        1344366.8518511271     
   106.00000000000000        1305752.4377149125     
   107.00000000000000        1268001.3500996286     
   108.00000000000000        1231103.9896202481     
   109.00000000000000        1195050.3659417694     
   110.00000000000000        1159830.1332507280     
   111.00000000000000        1125432.6239952834     
   112.00000000000000        1091846.8809560863     
   113.00000000000000        1059061.6877087879     
   114.00000000000000        1027065.5975374328     
   115.00000000000000        995846.96085662779     
   116.00000000000000        965393.95119879209     
   117.00000000000000        935694.58982143039     
   118.00000000000000        906736.76898775075     
   119.00000000000000        878508.27397263958     
   120.00000000000000        850996.80384442990     
   121.00000000000000        824189.99107152713     
   122.00000000000000        798075.42000149842     
   123.00000000000000        772640.64425881160     
   124.00000000000000        747873.20310608798     
   125.00000000000000        723760.63681220450     
   126.00000000000000        700290.50106943666     
   127.00000000000000        677450.38050030707     
   128.00000000000000        655227.90129361372     
   129.00000000000000        633610.74300778995     
   130.00000000000000        612586.64957848378     
   131.00000000000000        592143.43956600211     
   132.00000000000000        572269.01567708503     
   133.00000000000000        552951.37359425030     
   134.00000000000000        534178.61014482251     
   135.00000000000000        515938.93084060191     
   136.00000000000000        498220.65681804525     
   137.00000000000000        481012.23120774806     
   138.00000000000000        464302.22496094351     
   139.00000000000000        448079.34215973190     
   140.00000000000000        432332.42483676004     
   141.00000000000000        417050.45732908230     
   142.00000000000000        402222.57018997712     
   143.00000000000000        387838.04368162219     
   144.00000000000000        373886.31087059010     
   145.00000000000000        360356.96034728142     
   146.00000000000000        347239.73858956527     
   147.00000000000000        334524.55199009529     
   148.00000000000000        322201.46856594586     
   149.00000000000000        310260.71936848160     
   150.00000000000000        298692.69961060461     
   151.00000000000000        287487.96952782042     
   152.00000000000000        276637.25498885155     
   153.00000000000000        266131.44787087676     
   154.00000000000000        255961.60621379045     
   155.00000000000000        246118.95416728314     
   156.00000000000000        236594.88174390607     
   157.00000000000000        227380.94439071437     
   158.00000000000000        218468.86239150551     
   159.00000000000000        209850.52011112610     
   160.00000000000000        201517.96509279488     
   161.00000000000000        193463.40701888374     
   162.00000000000000        185679.21654509407     
   163.00000000000000        178157.92401750654     
   164.00000000000000        170892.21808153123     
   165.00000000000000        163874.94419133075     
   166.00000000000000        157099.10302788235     
   167.00000000000000        150557.84883343859     
   168.00000000000000        144244.48766974232     
   169.00000000000000        138152.47560700073     
   170.00000000000000        132275.41685024565     
   171.00000000000000        126607.06180936533     
   172.00000000000000        121141.30511877056     
   173.00000000000000        115872.18361232831     
   174.00000000000000        110793.87425889903     
   175.00000000000000        105900.69206351758     
   176.00000000000000        101187.08793897832     
   177.00000000000000        96647.646552320657     
   178.00000000000000        92277.084150444090     
   179.00000000000000        88070.246368846550     
   180.00000000000000        84022.106027242698     
   181.00000000000000        80127.760915580511     
   182.00000000000000        76382.431573785972     
   183.00000000000000        72781.459068328870     
   184.00000000000000        69320.302768529757     
   185.00000000000000        65994.538125332299     
   186.00000000000000        62799.854455081077     
   187.00000000000000        59732.052730687552     
   188.00000000000000        56787.043382386801     
   189.00000000000000        53960.844110150727     
   190.00000000000000        51249.577709661979     
   191.00000000000000        48649.469913618464     
   192.00000000000000        46156.847250005092     
   193.00000000000000        43768.134918836266     
   194.00000000000000        41479.854688763313     
   195.00000000000000        39288.622814812763     
   196.00000000000000        37191.147978420631     
   197.00000000000000        35184.229250824406     
   198.00000000000000        33264.754080772502     
   199.00000000000000        31429.696307419363     
   200.00000000000000        29676.114199192380     
   201.00000000000000        28001.148519319555     
   202.00000000000000        26402.020618645412     
   203.00000000000000        24876.030556275593     
   204.00000000000000        23420.555248524153     
   205.00000000000000        22033.046646573719     
   206.00000000000000        20711.029943193505     
   207.00000000000000        19452.101808801202     
   208.00000000000000        18253.928657100740     
   209.00000000000000        17114.244940477693     
   210.00000000000000        16030.851475278578     
   211.00000000000000        15001.613797063239     
   212.00000000000000        14024.460545870101     
   213.00000000000000        13097.381881496880     
   214.00000000000000        12218.427928759938     
   215.00000000000000        11385.707252663922     
   216.00000000000000        10597.385363375706     
   217.00000000000000        9851.6832508708885     
   218.00000000000000        9146.8759490898101     
   219.00000000000000        8481.2911294154255     
   220.00000000000000        7853.3077232617807     
   221.00000000000000        7261.3545735365724     
   222.00000000000000        6703.9091147246700     
   223.00000000000000        6179.4960813176140     
   224.00000000000000        5686.6862442982265     
   225.00000000000000        5224.0951753736526     
   226.00000000000000        4790.3820386343459     
   227.00000000000000        4384.2484093069497     
   228.00000000000000        4004.4371192526974     
   229.00000000000000        3649.7311288561791     
   230.00000000000000        3318.9524249387327     
   231.00000000000000        3010.9609443218928     
   232.00000000000000        2724.6535226597689     
   233.00000000000000        2458.9628681531913     
   234.00000000000000        2212.8565597519641     
   235.00000000000000        1985.3360694486653     
   236.00000000000000        1775.4358082620604     
   237.00000000000000        1582.2221955067562     
   238.00000000000000        1404.7927509423664     
   239.00000000000000        1242.2752093944148     
   240.00000000000000        1093.8266574381739     
   241.00000000000000        958.63269173638787     
   242.00000000000000        835.90659862157554     
   243.00000000000000        724.88855451489826     
   244.00000000000000        624.84484677427997     
   245.00000000000000        535.06711456615153     
   246.00000000000000        454.87160935751524     
   247.00000000000000        383.59847462702430     
   248.00000000000000        320.61104439658732     
   249.00000000000000        265.29516018834715     
   250.00000000000000        217.05850601494791     
   251.00000000000000        175.32996101472799     
   252.00000000000000        139.55896934748199     
   253.00000000000000        109.21492697032350     
   254.00000000000000        83.786584917769915     
   255.00000000000000        62.781468714532451     
   256.00000000000000        45.725313554101952     
   257.00000000000000        32.161514881351643     
   258.00000000000000        21.650594022004782     
   259.00000000000000        13.769678507186846     
   260.00000000000000        8.1119967463333857     
   261.00000000000000        4.2863867070715598     
   262.00000000000000        1.9168182660912443     
   263.00000000000000       0.64192890040330597     
   264.00000000000000       0.11457239394573947     
   265.00000000000000        1.3802400025511772E-003
   266.00000000000000       -0.0000000000000000     
   267.00000000000000       -0.0000000000000000     
   268.00000000000000       -0.0000000000000000     
   269.00000000000000       -0.0000000000000000     
   270.00000000000000       -0.0000000000000000     
   271.00000000000000       -0.0000000000000000     
   272.00000000000000       -0.0000000000000000     
   273.00000000000000       -0.0000000000000000     
   274.00000000000000       -0.0000000000000000     
   275.00000000000000       -0.0000000000000000     
   276.00000000000000       -0.0000000000000000     
   277.00000000000000       -0.0000000000000000     
   278.00000000000000       -0.0000000000000000     
   279.00000000000000       -0.0000000000000000     
   280.00000000000000       -0.0000000000000000     
   281.00000000000000       -0.0000000000000000     
   282.00000000000000       -0.0000000000000000     
   283.00000000000000       -0.0000000000000000     
   284.00000000000000       -0.0000000000000000     
   285.00000000000000       -0.0000000000000000     
   286.00000000000000       -0.0000000000000000     
   287.00000000000000       -0.0000000000000000     
   288.00000000000000       -0.0000000000000000     
   289.00000000000000       -0.0000000000000000     
   290.00000000000000       -0.0000000000000000     
   291.00000000000000       -0.0000000000000000     
   292.00000000000000       -0.0000000000000000     
   293.00000000000000       -0.0000000000000000     
   294.00000000000000       -0.0000000000000000     
   295.00000000000000       -0.0000000000000000     
   296.00000000000000       -0.0000000000000000     
   297.00000000000000       -0.0000000000000000     
   298.00000000000000       -0.0000000000000000     
   299.00000000000000       -0.0000000000000000     
   300.00000000000000       -0.0000000000000000     
   301.00000000000000       -0.0000000000000000     
   302.00000000000000       -0.0000000000000000     
   303.00000000000000       -0.0000000000000000     
   304.00000000000000       -0.0000000000000000     
   305.00000000000000       -0.0000000000000000     
   306.00000000000000       -0.0000000000000000     
   307.00000000000000       -0.0000000000000000     
   308.00000000000000       -0.0000000000000000     
   309.00000000000000       -0.0000000000000000     
   310.00000000000000       -0.0000000000000000     
   311.00000000000000       -0.0000000000000000     
   312.00000000000000       -0.0000000000000000     
   313.00000000000000       -0.0000000000000000     
   314.00000000000000       -0.0000000000000000     
   315.00000000000000       -0.0000000000000000     
   316.00000000000000       -0.0000000000000000     
   317.00000000000000       -0.0000000000000000     
   318.00000000000000       -0.0000000000000000     
   319.00000000000000       -0.0000000000000000     
   320.00000000000000       -0.0000000000000000     
   321.00000000000000       -0.0000000000000000     
   322.00000000000000       -0.0000000000000000     
   323.00000000000000       -0.0000000000000000     
   324.00000000000000       -0.0000000000000000     
   325.00000000000000       -0.0000000000000000     
   326.00000000000000       -0.0000000000000000     
   327.00000000000000       -0.0000000000000000     
   328.00000000000000       -0.0000000000000000     
   329.00000000000000       -0.0000000000000000     
   330.00000000000000       -0.0000000000000000     
   331.00000000000000       -0.0000000000000000     
   332.00000000000000       -0.0000000000000000     
   333.00000000000000       -0.0000000000000000     
   334.00000000000000       -0.0000000000000000     
   335.00000000000000       -0.0000000000000000     
   336.00000000000000       -0.0000000000000000     
   337.00000000000000       -0.0000000000000000     
   338.00000000000000       -0.0000000000000000     
   339.00000000000000       -0.0000000000000000     
   340.00000000000000       -0.0000000000000000     
   341.00000000000000       -0.0000000000000000     
   342.00000000000000       -0.0000000000000000     
   343.00000000000000       -0.0000000000000000     
   344.00000000000000       -0.0000000000000000     
   345.00000000000000       -0.0000000000000000     
   346.00000000000000       -0.0000000000000000     
   347.00000000000000       -0.0000000000000000     
   348.00000000000000       -0.0000000000000000     
   349.00000000000000       -0.0000000000000000     
   350.00000000000000       -0.0000000000000000     
   351.00000000000000       -0.0000000000000000     
   352.00000000000000       -0.0000000000000000     
   353.00000000000000       -0.0000000000000000     
   354.00000000000000       -0.0000000000000000     
   355.00000000000000       -0.0000000000000000     
   356.00000000000000       -0.0000000000000000     
   357.00000000000000       -0.0000000000000000     
   358.00000000000000       -0.0000000000000000     
   359.00000000000000       -0.0000000000000000     
   360.00000000000000       -0.0000000000000000     
   361.00000000000000       -0.0000000000000000     
   362.00000000000000       -0.0000000000000000     
   363.00000000000000       -0.0000000000000000     
   364.00000000000000       -0.0000000000000000     
   365.00000000000000       -0.0000000000000000     
   366.00000000000000       -0.0000000000000000     
   367.00000000000000       -0.0000000000000000     
   368.00000000000000       -0.0000000000000000     
   369.00000000000000       -0.0000000000000000     
   370.00000000000000       -0.0000000000000000     
   371.00000000000000       -0.0000000000000000     
   372.00000000000000       -0.0000000000000000     
   373.00000000000000       -0.0000000000000000     
   374.00000000000000       -0.0000000000000000     
   375.00000000000000       -0.0000000000000000     
   376.00000000000000       -0.0000000000000000     
