# Recoil energy (kev)        Event rate (events/gev)
   1.0000000000000000        4.3469214414395330E-002
   2.0000000000000000        4.1999015688182692E-002
   3.0000000000000000        4.0574573781658206E-002
   4.0000000000000000        3.9194633008946933E-002
   5.0000000000000000        3.7857957845237079E-002
   6.0000000000000000        3.6563341501077713E-002
   7.0000000000000000        3.5309598987334684E-002
   8.0000000000000000        3.4095590222316965E-002
   9.0000000000000000        3.2920174011352839E-002
   10.000000000000000        3.1782258616298367E-002
   11.000000000000000        3.0680765040289916E-002
   12.000000000000000        2.9614645402957284E-002
   13.000000000000000        2.8582875349071678E-002
   14.000000000000000        2.7584455133325105E-002
   15.000000000000000        2.6618409635028661E-002
   16.000000000000000        2.5683786976899152E-002
   17.000000000000000        2.4779662147574117E-002
   18.000000000000000        2.3905130490864079E-002
   19.000000000000000        2.3059304309305240E-002
   20.000000000000000        2.2241334062845439E-002
   21.000000000000000        2.1450377717549755E-002
   22.000000000000000        2.0685622452453565E-002
   23.000000000000000        1.9946276809101569E-002
   24.000000000000000        1.9231561853558406E-002
   25.000000000000000        1.8540732402231717E-002
   26.000000000000000        1.7873053981137619E-002
   27.000000000000000        1.7227809702246220E-002
   28.000000000000000        1.6604305921307998E-002
   29.000000000000000        1.6001868796701152E-002
   30.000000000000000        1.5419852091163101E-002
   31.000000000000000        1.4857608891220800E-002
   32.000000000000000        1.4314525612010194E-002
   33.000000000000000        1.3789997089475136E-002
   34.000000000000000        1.3283437247320631E-002
   35.000000000000000        1.2794276659522973E-002
   36.000000000000000        1.2321962152342795E-002
   37.000000000000000        1.1865956413205137E-002
   38.000000000000000        1.1425737798153493E-002
   39.000000000000000        1.1000800053051710E-002
   40.000000000000000        1.0590651121452721E-002
   41.000000000000000        1.0194813285775393E-002
   42.000000000000000        9.8128228392763781E-003
   43.000000000000000        9.4442297346998133E-003
   44.000000000000000        9.0885972452815749E-003
   45.000000000000000        8.7455016090787676E-003
   46.000000000000000        8.4145317014073968E-003
   47.000000000000000        8.0952887102314491E-003
   48.000000000000000        7.7873858154672831E-003
   49.000000000000000        7.4904478745429649E-003
   50.000000000000000        7.2041111141804177E-003
   51.000000000000000        6.9280228283659512E-003
   52.000000000000000        6.6618410824712650E-003
   53.000000000000000        6.4052344234847014E-003
   54.000000000000000        6.1578815963085195E-003
   55.000000000000000        5.9194712660752035E-003
   56.000000000000000        5.6897017464323267E-003
   57.000000000000000        5.4682807337421120E-003
   58.000000000000000        5.2549250471390198E-003
   59.000000000000000        5.0493603743853076E-003
   60.000000000000000        4.8513210234618909E-003
   61.000000000000000        4.6605496798289743E-003
   62.000000000000000        4.4767971692883466E-003
   63.000000000000000        4.2998222263768782E-003
   64.000000000000000        4.1293912682185980E-003
   65.000000000000000        3.9652781737606587E-003
   66.000000000000000        3.8072640683166261E-003
   67.000000000000000        3.6551371133389425E-003
   68.000000000000000        3.5086923013409252E-003
   69.000000000000000        3.3677312558872958E-003
   70.000000000000000        3.2320620365712039E-003
   71.000000000000000        3.1014989488946541E-003
   72.000000000000000        2.9758623589684909E-003
   73.000000000000000        2.8549785129473922E-003
   74.000000000000000        2.7386793611148550E-003
   75.000000000000000        2.6268023865328107E-003
   76.000000000000000        2.5191904381700906E-003
   77.000000000000000        2.4156915684241179E-003
   78.000000000000000        2.3161588749499875E-003
   79.000000000000000        2.2204503467112197E-003
   80.000000000000000        2.1284287141669139E-003
   81.000000000000000        2.0399613035099475E-003
   82.000000000000000        1.9549198948716874E-003
   83.000000000000000        1.8731805844088693E-003
   84.000000000000000        1.7946236501889820E-003
   85.000000000000000        1.7191334217911943E-003
   86.000000000000000        1.6465981535404132E-003
   87.000000000000000        1.5769099012930014E-003
   88.000000000000000        1.5099644026933987E-003
   89.000000000000000        1.4456609608218373E-003
   90.000000000000000        1.3839023311541970E-003
   91.000000000000000        1.3245946117561667E-003
   92.000000000000000        1.2676471366346821E-003
   93.000000000000000        1.2129723721708487E-003
   94.000000000000000        1.1604858165595437E-003
   95.000000000000000        1.1101059021819957E-003
   96.000000000000000        1.0617539008388379E-003
   97.000000000000000        1.0153538317721849E-003
   98.000000000000000        9.7083237240655842E-004
   99.000000000000000        9.2811877173961234E-004
   100.00000000000000        8.8714476631480759E-004
   101.00000000000000        8.4784449870944217E-004
   102.00000000000000        8.1015443847259254E-004
   103.00000000000000        7.7401330544882784E-004
   104.00000000000000        7.3936199542468952E-004
   105.00000000000000        7.0614350803625044E-004
   106.00000000000000        6.7430287687722794E-004
   107.00000000000000        6.4378710174838386E-004
   108.00000000000000        6.1454508299015140E-004
   109.00000000000000        5.8652755784166174E-004
   110.00000000000000        5.5968703877053822E-004
   111.00000000000000        5.3397775371902658E-004
   112.00000000000000        5.0935558821324544E-004
   113.00000000000000        4.8577802928349818E-004
   114.00000000000000        4.6320411114478477E-004
   115.00000000000000        4.4159436258778696E-004
   116.00000000000000        4.2091075603176864E-004
   117.00000000000000        4.0111665819197404E-004
   118.00000000000000        3.8217678231518900E-004
   119.00000000000000        3.6405714193829552E-004
   120.00000000000000        3.4672500612568837E-004
   121.00000000000000        3.3014885614252070E-004
   122.00000000000000        3.1429834352181881E-004
   123.00000000000000        2.9914424948452060E-004
   124.00000000000000        2.8465844567253899E-004
   125.00000000000000        2.7081385615595609E-004
   126.00000000000000        2.5758442067644213E-004
   127.00000000000000        2.4494505908997992E-004
   128.00000000000000        2.3287163697291736E-004
   129.00000000000000        2.2134093235631874E-004
   130.00000000000000        2.1033060355451434E-004
   131.00000000000000        1.9981915805463473E-004
   132.00000000000000        1.8978592243482540E-004
   133.00000000000000        1.8021101327967925E-004
   134.00000000000000        1.7107530906230385E-004
   135.00000000000000        1.6236042296324812E-004
   136.00000000000000        1.5404867659735147E-004
   137.00000000000000        1.4612307462035759E-004
   138.00000000000000        1.3856728018792441E-004
   139.00000000000000        1.3136559124042897E-004
   140.00000000000000        1.2450291758770907E-004
   141.00000000000000        1.1796475876860185E-004
   142.00000000000000        1.1173718266087557E-004
   143.00000000000000        1.0580680481782389E-004
   144.00000000000000        1.0016076850848652E-004
   145.00000000000000        9.4786725439116300E-005
   146.00000000000000        8.9672817134161297E-005
   147.00000000000000        8.4807656955667875E-005
   148.00000000000000        8.0180312740614514E-005
   149.00000000000000        7.5780290036304133E-005
   150.00000000000000        7.1597515914510236E-005
   151.00000000000000        6.7622323345659652E-005
   152.00000000000000        6.3845436114879638E-005
   153.00000000000000        6.0257954262283819E-005
   154.00000000000000        5.6851340030400838E-005
   155.00000000000000        5.3617404302163239E-005
   156.00000000000000        5.0548293513369376E-005
   157.00000000000000        4.7636477024031335E-005
   158.00000000000000        4.4874734933479909E-005
   159.00000000000000        4.2256146324576401E-005
   160.00000000000000        3.9774077922816876E-005
   161.00000000000000        3.7422173156559941E-005
   162.00000000000000        3.5194341605028968E-005
   163.00000000000000        3.3084748821158181E-005
   164.00000000000000        3.1087806516749452E-005
   165.00000000000000        2.9198163097799420E-005
   166.00000000000000        2.7410694538237195E-005
   167.00000000000000        2.5720495580680501E-005
   168.00000000000000        2.4122871253175613E-005
   169.00000000000000        2.2613328691240067E-005
   170.00000000000000        2.1187569254857532E-005
   171.00000000000000        1.9841480930411291E-005
   172.00000000000000        1.8571131007854351E-005
   173.00000000000000        1.7372759023730650E-005
   174.00000000000000        1.6242769960957207E-005
   175.00000000000000        1.5177727696573303E-005
   176.00000000000000        1.4174348688943152E-005
   177.00000000000000        1.3229495896175440E-005
   178.00000000000000        1.2340172917788246E-005
   179.00000000000000        1.1503518351909325E-005
   180.00000000000000        1.0716800360549424E-005
   181.00000000000000        9.9774114357328356E-006
   182.00000000000000        9.2828633595038519E-006
   183.00000000000000        8.6307823510572260E-006
   184.00000000000000        8.0189043944634889E-006
   185.00000000000000        7.4450707406739598E-006
   186.00000000000000        6.9072235777002370E-006
   187.00000000000000        6.4034018630639172E-006
   188.00000000000000        5.9317373128101296E-006
   189.00000000000000        5.4904505415657615E-006
   190.00000000000000        5.0778473483103937E-006
   191.00000000000000        4.6923151427034533E-006
   192.00000000000000        4.3323195069855053E-006
   193.00000000000000        3.9964008886384996E-006
   194.00000000000000        3.6831714191513486E-006
   195.00000000000000        3.3913118543948563E-006
   196.00000000000000        3.1195686322613943E-006
   197.00000000000000        2.8667510433718638E-006
   198.00000000000000        2.6317285107955177E-006
   199.00000000000000        2.4134279748652277E-006
   200.00000000000000        2.2108313793047672E-006
   201.00000000000000        2.0229732550137215E-006
   202.00000000000000        1.8489383979809138E-006
   203.00000000000000        1.6878596379173777E-006
   204.00000000000000        1.5389156943181335E-006
   205.00000000000000        1.4013291167742999E-006
   206.00000000000000        1.2743643064671416E-006
   207.00000000000000        1.1573256158814392E-006
   208.00000000000000        1.0495555238782626E-006
   209.00000000000000        9.5043288336619807E-007
   210.00000000000000        8.5937123890611121E-007
   211.00000000000000        7.7581721167724701E-007
   212.00000000000000        6.9924894932199917E-007
   213.00000000000000        6.2917463827374904E-007
   214.00000000000000        5.6513107625546267E-007
   215.00000000000000        5.0668230271841377E-007
   216.00000000000000        4.5341828506812640E-007
   217.00000000000000        4.0495365860081065E-007
   218.00000000000000        3.6092651814657319E-007
   219.00000000000000        3.2099725948637149E-007
   220.00000000000000        2.8484746867813022E-007
   221.00000000000000        2.5217885749353757E-007
   222.00000000000000        2.2271224323064916E-007
   223.00000000000000        1.9618657122939157E-007
   224.00000000000000        1.7235797847635647E-007
   225.00000000000000        1.5099889674304182E-007
   226.00000000000000        1.3189719375713911E-007
   227.00000000000000        1.1485535096029821E-007
   228.00000000000000        9.9689676457523805E-008
   229.00000000000000        8.6229551813593646E-008
   230.00000000000000        7.4316711400155318E-008
   231.00000000000000        6.3804553043924483E-008
   232.00000000000000        5.4557478771484229E-008
   233.00000000000000        4.6450264489769055E-008
   234.00000000000000        3.9367457483325888E-008
   235.00000000000000        3.3202800650053674E-008
   236.00000000000000        2.7858682436314466E-008
   237.00000000000000        2.3245611470118255E-008
   238.00000000000000        1.9281714927597922E-008
   239.00000000000000        1.5892259703230394E-008
   240.00000000000000        1.3009195488261171E-008
   241.00000000000000        1.0570718894616039E-008
   242.00000000000000        8.5208577932405348E-009
   243.00000000000000        6.8090750663764877E-009
   244.00000000000000        5.3898910027650462E-009
   245.00000000000000        4.2225235932121248E-009
   246.00000000000000        3.2705460113990373E-009
   247.00000000000000        2.5015605912940175E-009
   248.00000000000000        1.8868886380617963E-009
   249.00000000000000        1.4012754340012931E-009
   250.00000000000000        1.0226098248054910E-009
   251.00000000000000        7.3165779435003429E-010
   252.00000000000000        5.1180945832327076E-010
   253.00000000000000        3.4883892832034488E-010
   254.00000000000000        2.3067651857937073E-010
   255.00000000000000        1.4719278735513273E-010
   256.00000000000000        8.9993924034583873E-011
   257.00000000000000        5.2228011521934357E-011
   258.00000000000000        2.8401711183652726E-011
   259.00000000000000        1.4206934766305730E-011
   260.00000000000000        6.3570842070518155E-012
   261.00000000000000        2.4324561675091050E-012
   262.00000000000000        7.3442345805241917E-013
   263.00000000000000        1.4802030100452685E-013
   264.00000000000000        1.2572627082196005E-014
   265.00000000000000        2.8328416678908264E-017
   266.00000000000000       -0.0000000000000000     
   267.00000000000000       -0.0000000000000000     
   268.00000000000000       -0.0000000000000000     
   269.00000000000000       -0.0000000000000000     
   270.00000000000000       -0.0000000000000000     
   271.00000000000000       -0.0000000000000000     
   272.00000000000000       -0.0000000000000000     
   273.00000000000000       -0.0000000000000000     
   274.00000000000000       -0.0000000000000000     
   275.00000000000000       -0.0000000000000000     
   276.00000000000000       -0.0000000000000000     
   277.00000000000000       -0.0000000000000000     
   278.00000000000000       -0.0000000000000000     
   279.00000000000000       -0.0000000000000000     
   280.00000000000000       -0.0000000000000000     
   281.00000000000000       -0.0000000000000000     
   282.00000000000000       -0.0000000000000000     
   283.00000000000000       -0.0000000000000000     
   284.00000000000000       -0.0000000000000000     
   285.00000000000000       -0.0000000000000000     
   286.00000000000000       -0.0000000000000000     
   287.00000000000000       -0.0000000000000000     
   288.00000000000000       -0.0000000000000000     
   289.00000000000000       -0.0000000000000000     
   290.00000000000000       -0.0000000000000000     
   291.00000000000000       -0.0000000000000000     
   292.00000000000000       -0.0000000000000000     
   293.00000000000000       -0.0000000000000000     
   294.00000000000000       -0.0000000000000000     
   295.00000000000000       -0.0000000000000000     
   296.00000000000000       -0.0000000000000000     
   297.00000000000000       -0.0000000000000000     
   298.00000000000000       -0.0000000000000000     
   299.00000000000000       -0.0000000000000000     
   300.00000000000000       -0.0000000000000000     
   301.00000000000000       -0.0000000000000000     
   302.00000000000000       -0.0000000000000000     
   303.00000000000000       -0.0000000000000000     
   304.00000000000000       -0.0000000000000000     
   305.00000000000000       -0.0000000000000000     
   306.00000000000000       -0.0000000000000000     
   307.00000000000000       -0.0000000000000000     
   308.00000000000000       -0.0000000000000000     
   309.00000000000000       -0.0000000000000000     
   310.00000000000000       -0.0000000000000000     
   311.00000000000000       -0.0000000000000000     
   312.00000000000000       -0.0000000000000000     
   313.00000000000000       -0.0000000000000000     
   314.00000000000000       -0.0000000000000000     
   315.00000000000000       -0.0000000000000000     
   316.00000000000000       -0.0000000000000000     
   317.00000000000000       -0.0000000000000000     
   318.00000000000000       -0.0000000000000000     
   319.00000000000000       -0.0000000000000000     
   320.00000000000000       -0.0000000000000000     
   321.00000000000000       -0.0000000000000000     
   322.00000000000000       -0.0000000000000000     
   323.00000000000000       -0.0000000000000000     
   324.00000000000000       -0.0000000000000000     
   325.00000000000000       -0.0000000000000000     
   326.00000000000000       -0.0000000000000000     
   327.00000000000000       -0.0000000000000000     
   328.00000000000000       -0.0000000000000000     
   329.00000000000000       -0.0000000000000000     
   330.00000000000000       -0.0000000000000000     
   331.00000000000000       -0.0000000000000000     
   332.00000000000000       -0.0000000000000000     
   333.00000000000000       -0.0000000000000000     
   334.00000000000000       -0.0000000000000000     
   335.00000000000000       -0.0000000000000000     
   336.00000000000000       -0.0000000000000000     
   337.00000000000000       -0.0000000000000000     
   338.00000000000000       -0.0000000000000000     
   339.00000000000000       -0.0000000000000000     
   340.00000000000000       -0.0000000000000000     
   341.00000000000000       -0.0000000000000000     
   342.00000000000000       -0.0000000000000000     
   343.00000000000000       -0.0000000000000000     
   344.00000000000000       -0.0000000000000000     
   345.00000000000000       -0.0000000000000000     
   346.00000000000000       -0.0000000000000000     
   347.00000000000000       -0.0000000000000000     
   348.00000000000000       -0.0000000000000000     
   349.00000000000000       -0.0000000000000000     
   350.00000000000000       -0.0000000000000000     
   351.00000000000000       -0.0000000000000000     
   352.00000000000000       -0.0000000000000000     
   353.00000000000000       -0.0000000000000000     
   354.00000000000000       -0.0000000000000000     
   355.00000000000000       -0.0000000000000000     
   356.00000000000000       -0.0000000000000000     
   357.00000000000000       -0.0000000000000000     
   358.00000000000000       -0.0000000000000000     
   359.00000000000000       -0.0000000000000000     
   360.00000000000000       -0.0000000000000000     
   361.00000000000000       -0.0000000000000000     
   362.00000000000000       -0.0000000000000000     
   363.00000000000000       -0.0000000000000000     
   364.00000000000000       -0.0000000000000000     
   365.00000000000000       -0.0000000000000000     
   366.00000000000000       -0.0000000000000000     
   367.00000000000000       -0.0000000000000000     
   368.00000000000000       -0.0000000000000000     
   369.00000000000000       -0.0000000000000000     
   370.00000000000000       -0.0000000000000000     
   371.00000000000000       -0.0000000000000000     
   372.00000000000000       -0.0000000000000000     
   373.00000000000000       -0.0000000000000000     
   374.00000000000000       -0.0000000000000000     
   375.00000000000000       -0.0000000000000000     
   376.00000000000000       -0.0000000000000000     
