# Recoil energy (kev)        Event rate (events/gev)
   1.0000000000000000        26394667845.357155     
   2.0000000000000000        25700681192.393925     
   3.0000000000000000        25019955637.119198     
   4.0000000000000000        24352511056.505142     
   5.0000000000000000        23698344095.744629     
   6.0000000000000000        23057430416.351654     
   7.0000000000000000        22429729406.730007     
   8.0000000000000000        21815191332.567890     
   9.0000000000000000        21213738332.204605     
   10.000000000000000        20625294582.663654     
   11.000000000000000        20049759648.968658     
   12.000000000000000        19487027150.056213     
   13.000000000000000        18936980183.688866     
   14.000000000000000        18399491170.270897     
   15.000000000000000        17874423707.003502     
   16.000000000000000        17361633022.721729     
   17.000000000000000        16860974984.503998     
   18.000000000000000        16372276589.159691     
   19.000000000000000        15895389498.485565     
   20.000000000000000        15430142202.694818     
   21.000000000000000        14976356166.377541     
   22.000000000000000        14533860943.759945     
   23.000000000000000        14102483290.132948     
   24.000000000000000        13682012860.721308     
   25.000000000000000        13272292578.482758     
   26.000000000000000        12873124397.610720     
   27.000000000000000        12484320474.211775     
   28.000000000000000        12105694320.786289     
   29.000000000000000        11737042962.563030     
   30.000000000000000        11378186929.061783     
   31.000000000000000        11028931130.302494     
   32.000000000000000        10689081836.898315     
   33.000000000000000        10358448267.696768     
   34.000000000000000        10036848233.114458     
   35.000000000000000        9724082050.4540024     
   36.000000000000000        9419956054.1634007     
   37.000000000000000        9124294880.9526863     
   38.000000000000000        8836903420.6083393     
   39.000000000000000        8557609125.6529322     
   40.000000000000000        8286218675.7367020     
   41.000000000000000        8022550171.9488497     
   42.000000000000000        7766432665.1774359     
   43.000000000000000        7517681149.0762415     
   44.000000000000000        7276125695.0220375     
   45.000000000000000        7041592495.6334934     
   46.000000000000000        6813908654.7377663     
   47.000000000000000        6592904138.1323910     
   48.000000000000000        6378411786.4841337     
   49.000000000000000        6170267326.5022879     
   50.000000000000000        5968309380.0136776     
   51.000000000000000        5772379470.6710987     
   52.000000000000000        5582322028.1111612     
   53.000000000000000        5397984389.4467106     
   54.000000000000000        5219216798.0339298     
   55.000000000000000        5045872399.4995375     
   56.000000000000000        4877807235.0487261     
   57.000000000000000        4714880232.1034975     
   58.000000000000000        4556953192.3427095     
   59.000000000000000        4403890777.2331905     
   60.000000000000000        4255560491.1538358     
   61.000000000000000        4111832662.2246327     
   62.000000000000000        3972580420.9593844     
   63.000000000000000        3837679676.8653698     
   64.000000000000000        3707009093.1159153     
   65.000000000000000        3580450059.4229093     
   66.000000000000000        3457886663.2359314     
   67.000000000000000        3339205659.3936787     
   68.000000000000000        3224296438.3509812     
   69.000000000000000        3113050993.1022153     
   70.000000000000000        3005363884.9184942     
   71.000000000000000        2901132208.0123672     
   72.000000000000000        2800255553.2398739     
   73.000000000000000        2702635970.9454498     
   74.000000000000000        2608177933.0509710     
   75.000000000000000        2516788294.4857616     
   76.000000000000000        2428376254.0498047     
   77.000000000000000        2342853314.7980351     
   78.000000000000000        2260133244.0290999     
   79.000000000000000        2180132032.9574590     
   80.000000000000000        2102767856.1435802     
   81.000000000000000        2027961030.7524860     
   82.000000000000000        1955633975.7070022     
   83.000000000000000        1885711170.7978821     
   84.000000000000000        1818119115.8091974     
   85.000000000000000        1752786289.7135465     
   86.000000000000000        1689643109.9880402     
   87.000000000000000        1628621892.0985665     
   88.000000000000000        1569656809.1964078     
   89.000000000000000        1512683852.0681508     
   90.000000000000000        1457640789.3766928     
   91.000000000000000        1404467128.2282970     
   92.000000000000000        1353104075.0977302     
   93.000000000000000        1303494497.1409500     
   94.000000000000000        1255582883.9222260     
   95.000000000000000        1209315309.5801771     
   96.000000000000000        1164639395.4548936     
   97.000000000000000        1121504273.1961749     
   98.000000000000000        1079860548.3708262     
   99.000000000000000        1039660264.5850604     
   100.00000000000000        1000856868.1361508     
   101.00000000000000        963405173.20578849     
   102.00000000000000        927261327.60597193     
   103.00000000000000        892382779.08667243     
   104.00000000000000        858728242.21312118     
   105.00000000000000        826257665.81920040     
   106.00000000000000        794932201.04208434     
   107.00000000000000        764714169.94219255     
   108.00000000000000        735567034.71127510     
   109.00000000000000        707455367.47053623     
   110.00000000000000        680344820.65960562     
   111.00000000000000        654202098.01636112     
   112.00000000000000        628994926.14668381     
   113.00000000000000        604692026.68252182     
   114.00000000000000        581263089.02583814     
   115.00000000000000        558678743.67540205     
   116.00000000000000        536910536.13272893     
   117.00000000000000        515930901.38295043     
   118.00000000000000        495713138.94579738     
   119.00000000000000        476231388.49148750     
   120.00000000000000        457460606.01580113     
   121.00000000000000        439376540.56827199     
   122.00000000000000        421955711.52703893     
   123.00000000000000        405175386.41357929     
   124.00000000000000        389013559.24028349     
   125.00000000000000        373448929.38349563     
   126.00000000000000        358460880.97450995     
   127.00000000000000        344029462.80072612     
   128.00000000000000        330135368.70902741     
   129.00000000000000        316759918.50328946     
   130.00000000000000        303885039.32778835     
   131.00000000000000        291493247.52816069     
   132.00000000000000        279567630.98150289     
   133.00000000000000        268091831.88709420     
   134.00000000000000        257050030.00920370     
   135.00000000000000        246426926.36337897     
   136.00000000000000        236207727.33761364     
   137.00000000000000        226378129.23977175     
   138.00000000000000        216924303.26265171     
   139.00000000000000        207832880.85809204     
   140.00000000000000        199090939.51155812     
   141.00000000000000        190685988.90867969     
   142.00000000000000        182605957.48524877     
   143.00000000000000        174839179.35227334     
   144.00000000000000        167374381.58772057     
   145.00000000000000        160200671.88666949     
   146.00000000000000        153307526.56167287     
   147.00000000000000        146684778.88521594     
   148.00000000000000        140322607.76624075     
   149.00000000000000        134211526.75281982     
   150.00000000000000        128342373.35314767     
   151.00000000000000        122706298.66713724     
   152.00000000000000        117294757.32100788     
   153.00000000000000        112099497.69737382     
   154.00000000000000        107112552.45344643     
   155.00000000000000        102326229.32009362     
   156.00000000000000        97733102.174607784     
   157.00000000000000        93326002.380167291     
   158.00000000000000        89098010.385087788     
   159.00000000000000        85042447.575092494     
   160.00000000000000        81152868.371952027     
   161.00000000000000        77423052.571974382     
   162.00000000000000        73846997.917943597     
   163.00000000000000        70418912.898238227     
   164.00000000000000        67133209.766990781     
   165.00000000000000        63984497.779263474     
   166.00000000000000        60967576.635354079     
   167.00000000000000        58077430.128464229     
   168.00000000000000        55309219.990085669     
   169.00000000000000        52658279.927590534     
   170.00000000000000        50120109.848628640     
   171.00000000000000        47690370.267057538     
   172.00000000000000        45364876.885254554     
   173.00000000000000        43139595.347776942     
   174.00000000000000        41010636.161454119     
   175.00000000000000        38974249.777114466     
   176.00000000000000        37026821.828262553     
   177.00000000000000        35164868.522138342     
   178.00000000000000        33385032.178698629     
   179.00000000000000        31684076.913174316     
   180.00000000000000        30058884.457966581     
   181.00000000000000        28506450.119745407     
   182.00000000000000        27023878.867730465     
   183.00000000000000        25608381.549225174     
   184.00000000000000        24257271.228585660     
   185.00000000000000        22967959.645902593     
   186.00000000000000        21737953.791770361     
   187.00000000000000        20564852.594618015     
   188.00000000000000        19446343.717166029     
   189.00000000000000        18380200.458669543     
   190.00000000000000        17364278.759696469     
   191.00000000000000        16396514.306278005     
   192.00000000000000        15474919.730357254     
   193.00000000000000        14597581.903543662     
   194.00000000000000        13762659.321268333     
   195.00000000000000        12968379.574512370     
   196.00000000000000        12213036.906361785     
   197.00000000000000        11494989.850720881     
   198.00000000000000        10812658.950590288     
   199.00000000000000        10164524.553390460     
   200.00000000000000        9549124.6808855627     
   201.00000000000000        8965052.9713292271     
   202.00000000000000        8410956.6915277243     
   203.00000000000000        7885534.8165796073     
   204.00000000000000        7387536.1751176286     
   205.00000000000000        6915757.6579434453     
   206.00000000000000        6469042.4880073406     
   207.00000000000000        6046278.5497456985     
   208.00000000000000        5646396.7758489065     
   209.00000000000000        5268369.5895905038     
   210.00000000000000        4911209.4009026261     
   211.00000000000000        4573967.1544402521     
   212.00000000000000        4255730.9279281348     
   213.00000000000000        3955624.5791370575     
   214.00000000000000        3672806.4398860568     
   215.00000000000000        3406468.0555175017     
   216.00000000000000        3155832.9683381356     
   217.00000000000000        2920155.5435671774     
   218.00000000000000        2698719.8363769259     
   219.00000000000000        2490838.4986556214     
   220.00000000000000        2295851.7241653837     
   221.00000000000000        2113126.2308086874     
   222.00000000000000        1942054.2787583903     
   223.00000000000000        1782052.7232447320     
   224.00000000000000        1632562.1008312211     
   225.00000000000000        1493045.7480484147     
   226.00000000000000        1362988.9512900757     
   227.00000000000000        1241898.1269121612     
   228.00000000000000        1129300.0305076777     
   229.00000000000000        1024740.9943644042     
   230.00000000000000        927786.19214409019     
   231.00000000000000        838018.92985263432     
   232.00000000000000        755039.96220096434     
   233.00000000000000        678466.83348566864     
   234.00000000000000        607933.24214640597     
   235.00000000000000        543088.42818505282     
   236.00000000000000        483596.58265774685     
   237.00000000000000        429136.27847721783     
   238.00000000000000        379399.92178757425     
   239.00000000000000        334093.22319812921     
   240.00000000000000        292934.68818639562     
   241.00000000000000        255655.12600322091     
   242.00000000000000        221997.17643504898     
   243.00000000000000        191714.85379988738     
   244.00000000000000        164573.10757420966     
   245.00000000000000        140347.39906816886     
   246.00000000000000        118823.29358607190     
   247.00000000000000        99796.067527846419     
   248.00000000000000        83070.329905537918     
   249.00000000000000        68459.657766658274     
   250.00000000000000        55786.245033277599     
   251.00000000000000        44880.564282378000     
   252.00000000000000        35581.041009094413     
   253.00000000000000        27733.739929970136     
   254.00000000000000        21192.062898484342     
   255.00000000000000        15816.458019648720     
   256.00000000000000        11474.139564558887     
   257.00000000000000        8038.8182995128245     
   258.00000000000000        5390.4418574301590     
   259.00000000000000        3414.9447921566298     
   260.00000000000000        2004.0079685639982     
   261.00000000000000        1054.8269533293658     
   262.00000000000000        469.88908285209226     
   263.00000000000000        156.75889594074889     
   264.00000000000000        27.871629739490643     
   265.00000000000000       0.33448781762248042     
   266.00000000000000       -0.0000000000000000     
   267.00000000000000       -0.0000000000000000     
   268.00000000000000       -0.0000000000000000     
   269.00000000000000       -0.0000000000000000     
   270.00000000000000       -0.0000000000000000     
   271.00000000000000       -0.0000000000000000     
   272.00000000000000       -0.0000000000000000     
   273.00000000000000       -0.0000000000000000     
   274.00000000000000       -0.0000000000000000     
   275.00000000000000       -0.0000000000000000     
   276.00000000000000       -0.0000000000000000     
   277.00000000000000       -0.0000000000000000     
   278.00000000000000       -0.0000000000000000     
   279.00000000000000       -0.0000000000000000     
   280.00000000000000       -0.0000000000000000     
   281.00000000000000       -0.0000000000000000     
   282.00000000000000       -0.0000000000000000     
   283.00000000000000       -0.0000000000000000     
   284.00000000000000       -0.0000000000000000     
   285.00000000000000       -0.0000000000000000     
   286.00000000000000       -0.0000000000000000     
   287.00000000000000       -0.0000000000000000     
   288.00000000000000       -0.0000000000000000     
   289.00000000000000       -0.0000000000000000     
   290.00000000000000       -0.0000000000000000     
   291.00000000000000       -0.0000000000000000     
   292.00000000000000       -0.0000000000000000     
   293.00000000000000       -0.0000000000000000     
   294.00000000000000       -0.0000000000000000     
   295.00000000000000       -0.0000000000000000     
   296.00000000000000       -0.0000000000000000     
   297.00000000000000       -0.0000000000000000     
   298.00000000000000       -0.0000000000000000     
   299.00000000000000       -0.0000000000000000     
   300.00000000000000       -0.0000000000000000     
   301.00000000000000       -0.0000000000000000     
   302.00000000000000       -0.0000000000000000     
   303.00000000000000       -0.0000000000000000     
   304.00000000000000       -0.0000000000000000     
   305.00000000000000       -0.0000000000000000     
   306.00000000000000       -0.0000000000000000     
   307.00000000000000       -0.0000000000000000     
   308.00000000000000       -0.0000000000000000     
   309.00000000000000       -0.0000000000000000     
   310.00000000000000       -0.0000000000000000     
   311.00000000000000       -0.0000000000000000     
   312.00000000000000       -0.0000000000000000     
   313.00000000000000       -0.0000000000000000     
   314.00000000000000       -0.0000000000000000     
   315.00000000000000       -0.0000000000000000     
   316.00000000000000       -0.0000000000000000     
   317.00000000000000       -0.0000000000000000     
   318.00000000000000       -0.0000000000000000     
   319.00000000000000       -0.0000000000000000     
   320.00000000000000       -0.0000000000000000     
   321.00000000000000       -0.0000000000000000     
   322.00000000000000       -0.0000000000000000     
   323.00000000000000       -0.0000000000000000     
   324.00000000000000       -0.0000000000000000     
   325.00000000000000       -0.0000000000000000     
   326.00000000000000       -0.0000000000000000     
   327.00000000000000       -0.0000000000000000     
   328.00000000000000       -0.0000000000000000     
   329.00000000000000       -0.0000000000000000     
   330.00000000000000       -0.0000000000000000     
   331.00000000000000       -0.0000000000000000     
   332.00000000000000       -0.0000000000000000     
   333.00000000000000       -0.0000000000000000     
   334.00000000000000       -0.0000000000000000     
   335.00000000000000       -0.0000000000000000     
   336.00000000000000       -0.0000000000000000     
   337.00000000000000       -0.0000000000000000     
   338.00000000000000       -0.0000000000000000     
   339.00000000000000       -0.0000000000000000     
   340.00000000000000       -0.0000000000000000     
   341.00000000000000       -0.0000000000000000     
   342.00000000000000       -0.0000000000000000     
   343.00000000000000       -0.0000000000000000     
   344.00000000000000       -0.0000000000000000     
   345.00000000000000       -0.0000000000000000     
   346.00000000000000       -0.0000000000000000     
   347.00000000000000       -0.0000000000000000     
   348.00000000000000       -0.0000000000000000     
   349.00000000000000       -0.0000000000000000     
   350.00000000000000       -0.0000000000000000     
   351.00000000000000       -0.0000000000000000     
   352.00000000000000       -0.0000000000000000     
   353.00000000000000       -0.0000000000000000     
   354.00000000000000       -0.0000000000000000     
   355.00000000000000       -0.0000000000000000     
   356.00000000000000       -0.0000000000000000     
   357.00000000000000       -0.0000000000000000     
   358.00000000000000       -0.0000000000000000     
   359.00000000000000       -0.0000000000000000     
   360.00000000000000       -0.0000000000000000     
   361.00000000000000       -0.0000000000000000     
   362.00000000000000       -0.0000000000000000     
   363.00000000000000       -0.0000000000000000     
   364.00000000000000       -0.0000000000000000     
   365.00000000000000       -0.0000000000000000     
   366.00000000000000       -0.0000000000000000     
   367.00000000000000       -0.0000000000000000     
   368.00000000000000       -0.0000000000000000     
   369.00000000000000       -0.0000000000000000     
   370.00000000000000       -0.0000000000000000     
   371.00000000000000       -0.0000000000000000     
   372.00000000000000       -0.0000000000000000     
   373.00000000000000       -0.0000000000000000     
   374.00000000000000       -0.0000000000000000     
   375.00000000000000       -0.0000000000000000     
   376.00000000000000       -0.0000000000000000     
