# Recoil energy (kev)        Event rate (events/gev)
   1.0000000000000000        5.3354502608271440E-004
   2.0000000000000000        5.1512386952033131E-004
   3.0000000000000000        4.9726885055148898E-004
   4.0000000000000000        4.7996600556728526E-004
   5.0000000000000000        4.6320143250124668E-004
   6.0000000000000000        4.4696139928428088E-004
   7.0000000000000000        4.3123234249262918E-004
   8.0000000000000000        4.1600106120015767E-004
   9.0000000000000000        4.0125427415258147E-004
   10.000000000000000        3.8697921663894845E-004
   11.000000000000000        3.7316310062319991E-004
   12.000000000000000        3.5979348383510790E-004
   13.000000000000000        3.4685811074768112E-004
   14.000000000000000        3.3434494831184743E-004
   15.000000000000000        3.2224219271734190E-004
   16.000000000000000        3.1053825546920142E-004
   17.000000000000000        2.9922185807995129E-004
   18.000000000000000        2.8828179282528810E-004
   19.000000000000000        2.7770726526394886E-004
   20.000000000000000        2.6748762951921942E-004
   21.000000000000000        2.5761240242888985E-004
   22.000000000000000        2.4807147448548730E-004
   23.000000000000000        2.3885488805777054E-004
   24.000000000000000        2.2995294087682787E-004
   25.000000000000000        2.2135634124131117E-004
   26.000000000000000        2.1305496529158062E-004
   27.000000000000000        2.0504073402039728E-004
   28.000000000000000        1.9730448261021018E-004
   29.000000000000000        1.8983766722245295E-004
   30.000000000000000        1.8263177467669580E-004
   31.000000000000000        1.7567864895054165E-004
   32.000000000000000        1.6897042238957419E-004
   33.000000000000000        1.6249926586207783E-004
   34.000000000000000        1.5625777391801908E-004
   35.000000000000000        1.5023845835675820E-004
   36.000000000000000        1.4443414186880168E-004
   37.000000000000000        1.3883790458144333E-004
   38.000000000000000        1.3344302517237979E-004
   39.000000000000000        1.2824286209056531E-004
   40.000000000000000        1.2323106257178354E-004
   41.000000000000000        1.1840140374613989E-004
   42.000000000000000        1.1374784211441415E-004
   43.000000000000000        1.0926451002712271E-004
   44.000000000000000        1.0494571491714924E-004
   45.000000000000000        1.0078592787419511E-004
   46.000000000000000        9.6779782553276983E-005
   47.000000000000000        9.2922072451190489E-005
   48.000000000000000        8.9207747112326244E-005
   49.000000000000000        8.5631908381413703E-005
   50.000000000000000        8.2189806704370319E-005
   51.000000000000000        7.8876837476307549E-005
   52.000000000000000        7.5688537440382804E-005
   53.000000000000000        7.2620581136338073E-005
   54.000000000000000        6.9668777400945834E-005
   55.000000000000000        6.6829065921297819E-005
   56.000000000000000        6.4097513841473500E-005
   57.000000000000000        6.1470312423636135E-005
   58.000000000000000        5.8943773764644088E-005
   59.000000000000000        5.6514327568353052E-005
   60.000000000000000        5.4178517975072727E-005
   61.000000000000000        5.1933000447558690E-005
   62.000000000000000        4.9774538715362197E-005
   63.000000000000000        4.7700001776562622E-005
   64.000000000000000        4.5706360958198395E-005
   65.000000000000000        4.3790687035014579E-005
   66.000000000000000        4.1950147406702197E-005
   67.000000000000000        4.0182003333908286E-005
   68.000000000000000        3.8483607232534184E-005
   69.000000000000000        3.6852400026496959E-005
   70.000000000000000        3.5285908558776382E-005
   71.000000000000000        3.3781743060099054E-005
   72.000000000000000        3.2337594675276814E-005
   73.000000000000000        3.0951233046747552E-005
   74.000000000000000        2.9620503954633857E-005
   75.000000000000000        2.8343327013164533E-005
   76.000000000000000        2.7117693422466519E-005
   77.000000000000000        2.5941663775625866E-005
   78.000000000000000        2.4813365919830445E-005
   79.000000000000000        2.3730992871549532E-005
   80.000000000000000        2.2692800784411768E-005
   81.000000000000000        2.1697106969442160E-005
   82.000000000000000        2.0742287966765975E-005
   83.000000000000000        1.9826777668048335E-005
   84.000000000000000        1.8949065488774110E-005
   85.000000000000000        1.8107694589509849E-005
   86.000000000000000        1.7301260145495138E-005
   87.000000000000000        1.6528407663503993E-005
   88.000000000000000        1.5787831345219692E-005
   89.000000000000000        1.5078272496156675E-005
   90.000000000000000        1.4398517979378997E-005
   91.000000000000000        1.3747398712948385E-005
   92.000000000000000        1.3123788210367685E-005
   93.000000000000000        1.2526601163046391E-005
   94.000000000000000        1.1954792063892541E-005
   95.000000000000000        1.1407353871149264E-005
   96.000000000000000        1.0883316711610316E-005
   97.000000000000000        1.0381746622248945E-005
   98.000000000000000        9.9017443295013975E-006
   99.000000000000000        9.4424440651577756E-006
   100.00000000000000        9.0030124182223834E-006
   101.00000000000000        8.5826472216188811E-006
   102.00000000000000        8.1805764730742219E-006
   103.00000000000000        7.7960572892885233E-006
   104.00000000000000        7.4283748925092056E-006
   105.00000000000000        7.0768416287648999E-006
   106.00000000000000        6.7407960168642225E-006
   107.00000000000000        6.4196018274380434E-006
   108.00000000000000        6.1126471911491654E-006
   109.00000000000000        5.8193437353949921E-006
   110.00000000000000        5.5391257486502679E-006
   111.00000000000000        5.2714493717399084E-006
   112.00000000000000        5.0157918153004747E-006
   113.00000000000000        4.7716506027196559E-006
   114.00000000000000        4.5385428378038403E-006
   115.00000000000000        4.3160044965249394E-006
   116.00000000000000        4.1035897421220213E-006
   117.00000000000000        3.9008702629112119E-006
   118.00000000000000        3.7074346321765997E-006
   119.00000000000000        3.5228876893972558E-006
   120.00000000000000        3.3468499423410455E-006
   121.00000000000000        3.1789569892636010E-006
   122.00000000000000        3.0188589607094471E-006
   123.00000000000000        2.8662199802777292E-006
   124.00000000000000        2.7207176438152389E-006
   125.00000000000000        2.5820425164454170E-006
   126.00000000000000        2.4498976469233059E-006
   127.00000000000000        2.3239980987540133E-006
   128.00000000000000        2.2040704975778249E-006
   129.00000000000000        2.0898525942969523E-006
   130.00000000000000        1.9810928434812701E-006
   131.00000000000000        1.8775499965380232E-006
   132.00000000000000        1.7789927092091595E-006
   133.00000000000000        1.6851991629102188E-006
   134.00000000000000        1.5959566995060933E-006
   135.00000000000000        1.5110614690570181E-006
   136.00000000000000        1.4303180901401595E-006
   137.00000000000000        1.3535393223211777E-006
   138.00000000000000        1.2805457503924945E-006
   139.00000000000000        1.2111654799958886E-006
   140.00000000000000        1.1452338442356302E-006
   141.00000000000000        1.0825931209374724E-006
   142.00000000000000        1.0230922601941987E-006
   143.00000000000000        9.6658662185562191E-007
   144.00000000000000        9.1293772261928020E-007
   145.00000000000000        8.6201299242264856E-007
   146.00000000000000        8.1368553979838307E-007
   147.00000000000000        7.6783392590137404E-007
   148.00000000000000        7.2434194691103868E-007
   149.00000000000000        6.8309842451940343E-007
   150.00000000000000        6.4399700423036070E-007
   151.00000000000000        6.0693596120242443E-007
   152.00000000000000        5.7181801336968783E-007
   153.00000000000000        5.3855014158638862E-007
   154.00000000000000        5.0704341656627871E-007
   155.00000000000000        4.7721283235565751E-007
   156.00000000000000        4.4897714613035166E-007
   157.00000000000000        4.2225872408394139E-007
   158.00000000000000        3.9698339319621542E-007
   159.00000000000000        3.7308029866899798E-007
   160.00000000000000        3.5048176683605132E-007
   161.00000000000000        3.2912317334173978E-007
   162.00000000000000        3.0894281640701443E-007
   163.00000000000000        2.8988179499708838E-007
   164.00000000000000        2.7188389171452672E-007
   165.00000000000000        2.5489546024889564E-007
   166.00000000000000        2.3886531721287963E-007
   167.00000000000000        2.2374463821251573E-007
   168.00000000000000        2.0948685798925503E-007
   169.00000000000000        1.9604757449224383E-007
   170.00000000000000        1.8338445673123985E-007
   171.00000000000000        1.7145715627218010E-007
   172.00000000000000        1.6022722224458082E-007
   173.00000000000000        1.4965801972469687E-007
   174.00000000000000        1.3971465137385918E-007
   175.00000000000000        1.3036388220949675E-007
   176.00000000000000        1.2157406739092575E-007
   177.00000000000000        1.1331508290679530E-007
   178.00000000000000        1.0555825905856339E-007
   179.00000000000000        9.8276316630249960E-008
   180.00000000000000        9.1443305644975410E-008
   181.00000000000000        8.5034546612287402E-008
   182.00000000000000        7.9026574168128443E-008
   183.00000000000000        7.3397083018926675E-008
   184.00000000000000        6.8124876100727540E-008
   185.00000000000000        6.3189814869920174E-008
   186.00000000000000        5.8572771641304474E-008
   187.00000000000000        5.4255583897646603E-008
   188.00000000000000        5.0221010492611631E-008
   189.00000000000000        4.6452689674865900E-008
   190.00000000000000        4.2935098862248443E-008
   191.00000000000000        3.9653516098425576E-008
   192.00000000000000        3.6593983125865742E-008
   193.00000000000000        3.3743270012959478E-008
   194.00000000000000        3.1088841273321564E-008
   195.00000000000000        2.8618823419150819E-008
   196.00000000000000        2.6321973892709606E-008
   197.00000000000000        2.4187651320563453E-008
   198.00000000000000        2.2205787038915161E-008
   199.00000000000000        2.0366857839469003E-008
   200.00000000000000        1.8661859887157791E-008
   201.00000000000000        1.7082283763091160E-008
   202.00000000000000        1.5620090587905894E-008
   203.00000000000000        1.4267689181842290E-008
   204.00000000000000        1.3017914220502454E-008
   205.00000000000000        1.1864005345341691E-008
   206.00000000000000        1.0799587191380518E-008
   207.00000000000000        9.8186502940907783E-009
   208.00000000000000        8.9155328402567349E-009
   209.00000000000000        8.0849032284839295E-009
   210.00000000000000        7.3217434061595858E-009
   211.00000000000000        6.6213329511095234E-009
   212.00000000000000        5.9792338676822771E-009
   213.00000000000000        5.3912760675631144E-009
   214.00000000000000        4.8535435073245611E-009
   215.00000000000000        4.3623609554796527E-009
   216.00000000000000        3.9142813630358088E-009
   217.00000000000000        3.5060738124001678E-009
   218.00000000000000        3.1347120206216657E-009
   219.00000000000000        2.7973633737622299E-009
   220.00000000000000        2.4913784702642670E-009
   221.00000000000000        2.2142811517957366E-009
   222.00000000000000        1.9637590012122195E-009
   223.00000000000000        1.7376542877995167E-009
   224.00000000000000        1.5339553409291450E-009
   225.00000000000000        1.3507883339111747E-009
   226.00000000000000        1.1864094606349816E-009
   227.00000000000000        1.0391974881478792E-009
   228.00000000000000        9.0764666916321036E-010
   229.00000000000000        7.9035999898932803E-010
   230.00000000000000        6.8604280207416252E-010
   231.00000000000000        5.9349663392566761E-010
   232.00000000000000        5.1161348474167518E-010
   233.00000000000000        4.3937027163959964E-010
   234.00000000000000        3.7582360691266614E-010
   235.00000000000000        3.2010483024513308E-010
   236.00000000000000        2.7141529329628211E-010
   237.00000000000000        2.2902188556098678E-010
   238.00000000000000        1.9225279084968073E-010
   239.00000000000000        1.6049346416842627E-010
   240.00000000000000        1.3318281921112374E-010
   241.00000000000000        1.0980961706067364E-010
   242.00000000000000        8.9909047101304204E-011
   243.00000000000000        7.3059491503047461E-011
   244.00000000000000        5.8879465006399808E-011
   245.00000000000000        4.7024722070668633E-011
   246.00000000000000        3.7185523788298229E-011
   247.00000000000000        2.9084057276739398E-011
   248.00000000000000        2.2472000570432732E-011
   249.00000000000000        1.7128226323526190E-011
   250.00000000000000        1.2856637918366650E-011
   251.00000000000000        9.4841318417580497E-012
   252.00000000000000        6.8586804533642295E-012
   253.00000000000000        4.8475295158489269E-012
   254.00000000000000        3.3355050985916424E-012
   255.00000000000000        2.2234246936374072E-012
   256.00000000000000        1.4266076039319769E-012
   257.00000000000000        8.7347987465218364E-013
   258.00000000000000        5.0426924129671640E-013
   259.00000000000000        2.6978576261740081E-013
   260.00000000000000        1.3028399318412739E-013
   261.00000000000000        5.4402729415161327E-014
   262.00000000000000        1.8178534662874808E-014
   263.00000000000000        4.1294137400815969E-015
   264.00000000000000        4.0516529998345181E-016
   265.00000000000000        1.0920561201467844E-018
   266.00000000000000       -0.0000000000000000     
   267.00000000000000       -0.0000000000000000     
   268.00000000000000       -0.0000000000000000     
   269.00000000000000       -0.0000000000000000     
   270.00000000000000       -0.0000000000000000     
   271.00000000000000       -0.0000000000000000     
   272.00000000000000       -0.0000000000000000     
   273.00000000000000       -0.0000000000000000     
   274.00000000000000       -0.0000000000000000     
   275.00000000000000       -0.0000000000000000     
   276.00000000000000       -0.0000000000000000     
   277.00000000000000       -0.0000000000000000     
   278.00000000000000       -0.0000000000000000     
   279.00000000000000       -0.0000000000000000     
   280.00000000000000       -0.0000000000000000     
   281.00000000000000       -0.0000000000000000     
   282.00000000000000       -0.0000000000000000     
   283.00000000000000       -0.0000000000000000     
   284.00000000000000       -0.0000000000000000     
   285.00000000000000       -0.0000000000000000     
   286.00000000000000       -0.0000000000000000     
   287.00000000000000       -0.0000000000000000     
   288.00000000000000       -0.0000000000000000     
   289.00000000000000       -0.0000000000000000     
   290.00000000000000       -0.0000000000000000     
   291.00000000000000       -0.0000000000000000     
   292.00000000000000       -0.0000000000000000     
   293.00000000000000       -0.0000000000000000     
   294.00000000000000       -0.0000000000000000     
   295.00000000000000       -0.0000000000000000     
   296.00000000000000       -0.0000000000000000     
   297.00000000000000       -0.0000000000000000     
   298.00000000000000       -0.0000000000000000     
   299.00000000000000       -0.0000000000000000     
   300.00000000000000       -0.0000000000000000     
   301.00000000000000       -0.0000000000000000     
   302.00000000000000       -0.0000000000000000     
   303.00000000000000       -0.0000000000000000     
   304.00000000000000       -0.0000000000000000     
   305.00000000000000       -0.0000000000000000     
   306.00000000000000       -0.0000000000000000     
   307.00000000000000       -0.0000000000000000     
   308.00000000000000       -0.0000000000000000     
   309.00000000000000       -0.0000000000000000     
   310.00000000000000       -0.0000000000000000     
   311.00000000000000       -0.0000000000000000     
   312.00000000000000       -0.0000000000000000     
   313.00000000000000       -0.0000000000000000     
   314.00000000000000       -0.0000000000000000     
   315.00000000000000       -0.0000000000000000     
   316.00000000000000       -0.0000000000000000     
   317.00000000000000       -0.0000000000000000     
   318.00000000000000       -0.0000000000000000     
   319.00000000000000       -0.0000000000000000     
   320.00000000000000       -0.0000000000000000     
   321.00000000000000       -0.0000000000000000     
   322.00000000000000       -0.0000000000000000     
   323.00000000000000       -0.0000000000000000     
   324.00000000000000       -0.0000000000000000     
   325.00000000000000       -0.0000000000000000     
   326.00000000000000       -0.0000000000000000     
   327.00000000000000       -0.0000000000000000     
   328.00000000000000       -0.0000000000000000     
   329.00000000000000       -0.0000000000000000     
   330.00000000000000       -0.0000000000000000     
   331.00000000000000       -0.0000000000000000     
   332.00000000000000       -0.0000000000000000     
   333.00000000000000       -0.0000000000000000     
   334.00000000000000       -0.0000000000000000     
   335.00000000000000       -0.0000000000000000     
   336.00000000000000       -0.0000000000000000     
   337.00000000000000       -0.0000000000000000     
   338.00000000000000       -0.0000000000000000     
   339.00000000000000       -0.0000000000000000     
   340.00000000000000       -0.0000000000000000     
   341.00000000000000       -0.0000000000000000     
   342.00000000000000       -0.0000000000000000     
   343.00000000000000       -0.0000000000000000     
   344.00000000000000       -0.0000000000000000     
   345.00000000000000       -0.0000000000000000     
   346.00000000000000       -0.0000000000000000     
   347.00000000000000       -0.0000000000000000     
   348.00000000000000       -0.0000000000000000     
   349.00000000000000       -0.0000000000000000     
   350.00000000000000       -0.0000000000000000     
   351.00000000000000       -0.0000000000000000     
   352.00000000000000       -0.0000000000000000     
   353.00000000000000       -0.0000000000000000     
   354.00000000000000       -0.0000000000000000     
   355.00000000000000       -0.0000000000000000     
   356.00000000000000       -0.0000000000000000     
   357.00000000000000       -0.0000000000000000     
   358.00000000000000       -0.0000000000000000     
   359.00000000000000       -0.0000000000000000     
   360.00000000000000       -0.0000000000000000     
   361.00000000000000       -0.0000000000000000     
   362.00000000000000       -0.0000000000000000     
   363.00000000000000       -0.0000000000000000     
   364.00000000000000       -0.0000000000000000     
   365.00000000000000       -0.0000000000000000     
   366.00000000000000       -0.0000000000000000     
   367.00000000000000       -0.0000000000000000     
   368.00000000000000       -0.0000000000000000     
   369.00000000000000       -0.0000000000000000     
   370.00000000000000       -0.0000000000000000     
   371.00000000000000       -0.0000000000000000     
   372.00000000000000       -0.0000000000000000     
   373.00000000000000       -0.0000000000000000     
   374.00000000000000       -0.0000000000000000     
   375.00000000000000       -0.0000000000000000     
   376.00000000000000       -0.0000000000000000     
