# Recoil energy (kev)        Event rate (events/gev)
   1.0000000000000000        73.377158510753574     
   2.0000000000000000        142.50632205850954     
   3.0000000000000000        207.53002466744681     
   4.0000000000000000        268.58970864674586     
   5.0000000000000000        325.82540736181454     
   6.0000000000000000        379.37547025911783     
   7.0000000000000000        429.37637654263835     
   8.0000000000000000        475.96268237719153     
   9.0000000000000000        519.26644560541479     
   10.000000000000000        559.41768450832205     
   11.000000000000000        596.54362836405880     
   12.000000000000000        630.76901610576101     
   13.000000000000000        662.21587890815692     
   14.000000000000000        691.00341897196029     
   15.000000000000000        717.24796879701557     
   16.000000000000000        741.06292142112443     
   17.000000000000000        762.55905619073405     
   18.000000000000000        781.84316359689285     
   19.000000000000000        799.02039926835539     
   20.000000000000000        814.19209776238768     
   21.000000000000000        827.45640288158665     
   22.000000000000000        838.90908267066322     
   23.000000000000000        848.64300368388876     
   24.000000000000000        856.74597781273155     
   25.000000000000000        863.30621920056808     
   26.000000000000000        868.40666414091822     
   27.000000000000000        872.12808090550766     
   28.000000000000000        874.54858460115065     
   29.000000000000000        875.74235250807681     
   30.000000000000000        875.78253826043010     
   31.000000000000000        874.73847660490742     
   32.000000000000000        872.67691683419469     
   33.000000000000000        869.66220288144882     
   34.000000000000000        865.75682473211043     
   35.000000000000000        861.01923715692953     
   36.000000000000000        855.50582484518441     
   37.000000000000000        849.27214493800761     
   38.000000000000000        842.36953564608905     
   39.000000000000000        834.84905085708033     
   40.000000000000000        826.75741660698588     
   41.000000000000000        818.14011199645211     
   42.000000000000000        809.04147465363678     
   43.000000000000000        799.50218823671025     
   44.000000000000000        789.56231797732630     
   45.000000000000000        779.25940290438336     
   46.000000000000000        768.62898041928224     
   47.000000000000000        757.70484626392044     
   48.000000000000000        746.51911207268438     
   49.000000000000000        735.10226217332456     
   50.000000000000000        723.48320956680357     
   51.000000000000000        711.68935102342300     
   52.000000000000000        699.74662123958080     
   53.000000000000000        687.67954600618827     
   54.000000000000000        675.51129434589700     
   55.000000000000000        663.26372958240813     
   56.000000000000000        650.95745931044394     
   57.000000000000000        638.61188424031343     
   58.000000000000000        626.24524589574776     
   59.000000000000000        613.87467314817911     
   60.000000000000000        601.51622757484449     
   61.000000000000000        589.18494763186948     
   62.000000000000000        576.89489163718110     
   63.000000000000000        564.65917956117789     
   64.000000000000000        552.49003362627070     
   65.000000000000000        540.39881771904913     
   66.000000000000000        528.39607562135143     
   67.000000000000000        516.49156806880842     
   68.000000000000000        504.69430864749603     
   69.000000000000000        493.01259854114863     
   70.000000000000000        481.45406014312874     
   71.000000000000000        470.02566954877267     
   72.000000000000000        458.73378794509114     
   73.000000000000000        447.58419191599114     
   74.000000000000000        436.58210268216652     
   75.000000000000000        425.73221429575011     
   76.000000000000000        415.03872081056278     
   77.000000000000000        404.50534244942435     
   78.000000000000000        394.13535079059841     
   79.000000000000000        383.93159299582169     
   80.000000000000000        373.89651510274354     
   81.000000000000000        364.03218440491293     
   82.000000000000000        354.34031094255192     
   83.000000000000000        344.82226812755442     
   84.000000000000000        335.47911252614443     
   85.000000000000000        326.31160282267501     
   86.000000000000000        317.32021798790373     
   87.000000000000000        308.50517467505699     
   88.000000000000000        299.86644386678398     
   89.000000000000000        291.40376679589980     
   90.000000000000000        283.11667016260094     
   91.000000000000000        275.00448067056794     
   92.000000000000000        267.06633890404407     
   93.000000000000000        259.30121256767171     
   94.000000000000000        251.70790911052734     
   95.000000000000000        244.28508775540493     
   96.000000000000000        237.03127095401263     
   97.000000000000000        229.94485528837382     
   98.000000000000000        223.02412183825564     
   99.000000000000000        216.26724603408101     
   100.00000000000000        209.67230701429139     
   101.00000000000000        203.23729650571738     
   102.00000000000000        196.96012724506392     
   103.00000000000000        190.83864095913265     
   104.00000000000000        184.87061592100673     
   105.00000000000000        179.05377409890207     
   106.00000000000000        173.38578791399095     
   107.00000000000000        167.86428662300307     
   108.00000000000000        162.48686234098761     
   109.00000000000000        157.25107571916112     
   110.00000000000000        152.15446129229576     
   111.00000000000000        147.19453250971347     
   112.00000000000000        142.36878646345005     
   113.00000000000000        137.67470832677753     
   114.00000000000000        133.10977551581183     
   115.00000000000000        128.67146158653588     
   116.00000000000000        124.35723987913789     
   117.00000000000000        120.16458692118056     
   118.00000000000000        116.09098560070461     
   119.00000000000000        112.13392811999101     
   120.00000000000000        108.29091874031904     
   121.00000000000000        104.55947632769339     
   122.00000000000000        100.93713670914011     
   123.00000000000000        97.421454848827992     
   124.00000000000000        94.010006852915794     
   125.00000000000000        90.700391811690352     
   126.00000000000000        87.490233487240218     
   127.00000000000000        84.377181854576264     
   128.00000000000000        81.358914503810439     
   129.00000000000000        78.433137910695592     
   130.00000000000000        75.597588582536886     
   131.00000000000000        72.850034086203991     
   132.00000000000000        70.188273964689742     
   133.00000000000000        67.610140548392906     
   134.00000000000000        65.113499667060154     
   135.00000000000000        62.696251268037344     
   136.00000000000000        60.356329946271906     
   137.00000000000000        58.091705391249356     
   138.00000000000000        55.900382755829760     
   139.00000000000000        53.780402951722124     
   140.00000000000000        51.729842876132508     
   141.00000000000000        49.746815573910247     
   142.00000000000000        47.829470339312437     
   143.00000000000000        45.975992761332520     
   144.00000000000000        44.184604716338406     
   145.00000000000000        42.453564311597056     
   146.00000000000000        40.781165783090067     
   147.00000000000000        39.165739350859504     
   148.00000000000000        37.605651034965533     
   149.00000000000000        36.099302434986960     
   150.00000000000000        34.645130475845285     
   151.00000000000000        33.241607122598353     
   152.00000000000000        31.887239066710535     
   153.00000000000000        30.580567386178931     
   154.00000000000000        29.320167181768117     
   155.00000000000000        28.104647191491832     
   156.00000000000000        26.932649385360932     
   157.00000000000000        25.802848542310219     
   158.00000000000000        24.713951811110043     
   159.00000000000000        23.664698256970588     
   160.00000000000000        22.653858395448299     
   161.00000000000000        21.680233715173724     
   162.00000000000000        20.742656190831500     
   163.00000000000000        19.839987787737918     
   164.00000000000000        18.971119959284742     
   165.00000000000000        18.134973138437619     
   166.00000000000000        17.330496224406797     
   167.00000000000000        16.556666065536568     
   168.00000000000000        15.812486939394518     
   169.00000000000000        15.096990030977512     
   170.00000000000000        14.409232909891921     
   171.00000000000000        13.748299007305938     
   172.00000000000000        13.113297093420599     
   173.00000000000000        12.503360756150641     
   174.00000000000000        11.917647881658498     
   175.00000000000000        11.355340137338915     
   176.00000000000000        10.815642457803603     
   177.00000000000000        10.297782534377067     
   178.00000000000000        9.8010103085710689     
   179.00000000000000        9.3245974699696390     
   180.00000000000000        8.8678369589191188     
   181.00000000000000        8.4300424743831517     
   182.00000000000000        8.0105479872925649     
   183.00000000000000        7.6087072596860716     
   184.00000000000000        7.2238933699117078     
   185.00000000000000        6.8554982441304775     
   186.00000000000000        6.5029321943376122     
   187.00000000000000        6.1656234630935165     
   188.00000000000000        5.8430177751326848     
   189.00000000000000        5.5345778959981491     
   190.00000000000000        5.2397831978282579     
   191.00000000000000        4.9581292324036088     
   192.00000000000000        4.6891273115447811     
   193.00000000000000        4.4323040949334160     
   194.00000000000000        4.1872011854151845     
   195.00000000000000        3.9533747318274246     
   196.00000000000000        3.7303950393804155     
   197.00000000000000        3.5178461876095199     
   198.00000000000000        3.3153256559023907     
   199.00000000000000        3.1224439565948297     
   200.00000000000000        2.9388242756190497     
   201.00000000000000        2.7641021206771246     
   202.00000000000000        2.5979249769054120     
   203.00000000000000        2.4399519699861063     
   204.00000000000000        2.2898535366549453     
   205.00000000000000        2.1473111025476936     
   206.00000000000000        2.0120167673207510     
   207.00000000000000        1.8836729969761346     
   208.00000000000000        1.7619923233153092     
   209.00000000000000        1.6466970504419238     
   210.00000000000000        1.5375189682285288     
   211.00000000000000        1.4341990726590756     
   212.00000000000000        1.3364872929550231     
   213.00000000000000        1.2441422253897707     
   214.00000000000000        1.1569308736934345     
   215.00000000000000        1.0746283959475960     
   216.00000000000000       0.99701785786719554     
   217.00000000000000       0.92388999236526503     
   218.00000000000000       0.85504296529443069     
   219.00000000000000       0.79028214725778756     
   220.00000000000000       0.72941989138094576     
   221.00000000000000       0.67227531693587039     
   222.00000000000000       0.61867409870683632     
   223.00000000000000       0.56844826198828202     
   224.00000000000000       0.52143598310412098     
   225.00000000000000       0.47748139533816641     
   226.00000000000000       0.43643440016517165     
   227.00000000000000       0.39815048367267719     
   228.00000000000000       0.36249053806384862     
   229.00000000000000       0.32932068813227733     
   230.00000000000000       0.29851212260038523     
   231.00000000000000       0.26994093021373572     
   232.00000000000000       0.24348794048446551     
   233.00000000000000       0.21903856897810409     
   234.00000000000000       0.19648266703896367     
   235.00000000000000       0.17571437585052485     
   236.00000000000000       0.15663198472836334     
   237.00000000000000       0.13913779354449166     
   238.00000000000000       0.12313797918325305     
   239.00000000000000       0.10854246593028578     
   240.00000000000000        9.5264799697516014E-002
   241.00000000000000        8.3222025988578738E-002
   242.00000000000000        7.2334571510516338E-002
   243.00000000000000        6.2526129339194769E-002
   244.00000000000000        5.3723547547358655E-002
   245.00000000000000        4.5856721205832743E-002
   246.00000000000000        3.8858487669985481E-002
   247.00000000000000        3.2664525065129318E-002
   248.00000000000000        2.7213253886155277E-002
   249.00000000000000        2.2445741628329890E-002
   250.00000000000000        1.8305610367783526E-002
   251.00000000000000        1.4738947211848522E-002
   252.00000000000000        1.1694217541033673E-002
   253.00000000000000        9.1221809660254234E-003
   254.00000000000000        6.9758099247402275E-003
   255.00000000000000        5.2102108460468297E-003
   256.00000000000000        3.7825478083685408E-003
   257.00000000000000        2.6519686229869738E-003
   258.00000000000000        1.7795332734149073E-003
   259.00000000000000        1.1281446437897272E-003
   260.00000000000000        6.6248147077262783E-004
   261.00000000000000        3.4893345497329884E-004
   262.00000000000000        1.5553846943398559E-004
   263.00000000000000        5.1921804196755886E-005
   264.00000000000000        9.2373874582294476E-006
   265.00000000000000        1.1092526827227220E-007
   266.00000000000000       -0.0000000000000000     
   267.00000000000000       -0.0000000000000000     
   268.00000000000000       -0.0000000000000000     
   269.00000000000000       -0.0000000000000000     
   270.00000000000000       -0.0000000000000000     
   271.00000000000000       -0.0000000000000000     
   272.00000000000000       -0.0000000000000000     
   273.00000000000000       -0.0000000000000000     
   274.00000000000000       -0.0000000000000000     
   275.00000000000000       -0.0000000000000000     
   276.00000000000000       -0.0000000000000000     
   277.00000000000000       -0.0000000000000000     
   278.00000000000000       -0.0000000000000000     
   279.00000000000000       -0.0000000000000000     
   280.00000000000000       -0.0000000000000000     
   281.00000000000000       -0.0000000000000000     
   282.00000000000000       -0.0000000000000000     
   283.00000000000000       -0.0000000000000000     
   284.00000000000000       -0.0000000000000000     
   285.00000000000000       -0.0000000000000000     
   286.00000000000000       -0.0000000000000000     
   287.00000000000000       -0.0000000000000000     
   288.00000000000000       -0.0000000000000000     
   289.00000000000000       -0.0000000000000000     
   290.00000000000000       -0.0000000000000000     
   291.00000000000000       -0.0000000000000000     
   292.00000000000000       -0.0000000000000000     
   293.00000000000000       -0.0000000000000000     
   294.00000000000000       -0.0000000000000000     
   295.00000000000000       -0.0000000000000000     
   296.00000000000000       -0.0000000000000000     
   297.00000000000000       -0.0000000000000000     
   298.00000000000000       -0.0000000000000000     
   299.00000000000000       -0.0000000000000000     
   300.00000000000000       -0.0000000000000000     
   301.00000000000000       -0.0000000000000000     
   302.00000000000000       -0.0000000000000000     
   303.00000000000000       -0.0000000000000000     
   304.00000000000000       -0.0000000000000000     
   305.00000000000000       -0.0000000000000000     
   306.00000000000000       -0.0000000000000000     
   307.00000000000000       -0.0000000000000000     
   308.00000000000000       -0.0000000000000000     
   309.00000000000000       -0.0000000000000000     
   310.00000000000000       -0.0000000000000000     
   311.00000000000000       -0.0000000000000000     
   312.00000000000000       -0.0000000000000000     
   313.00000000000000       -0.0000000000000000     
   314.00000000000000       -0.0000000000000000     
   315.00000000000000       -0.0000000000000000     
   316.00000000000000       -0.0000000000000000     
   317.00000000000000       -0.0000000000000000     
   318.00000000000000       -0.0000000000000000     
   319.00000000000000       -0.0000000000000000     
   320.00000000000000       -0.0000000000000000     
   321.00000000000000       -0.0000000000000000     
   322.00000000000000       -0.0000000000000000     
   323.00000000000000       -0.0000000000000000     
   324.00000000000000       -0.0000000000000000     
   325.00000000000000       -0.0000000000000000     
   326.00000000000000       -0.0000000000000000     
   327.00000000000000       -0.0000000000000000     
   328.00000000000000       -0.0000000000000000     
   329.00000000000000       -0.0000000000000000     
   330.00000000000000       -0.0000000000000000     
   331.00000000000000       -0.0000000000000000     
   332.00000000000000       -0.0000000000000000     
   333.00000000000000       -0.0000000000000000     
   334.00000000000000       -0.0000000000000000     
   335.00000000000000       -0.0000000000000000     
   336.00000000000000       -0.0000000000000000     
   337.00000000000000       -0.0000000000000000     
   338.00000000000000       -0.0000000000000000     
   339.00000000000000       -0.0000000000000000     
   340.00000000000000       -0.0000000000000000     
   341.00000000000000       -0.0000000000000000     
   342.00000000000000       -0.0000000000000000     
   343.00000000000000       -0.0000000000000000     
   344.00000000000000       -0.0000000000000000     
   345.00000000000000       -0.0000000000000000     
   346.00000000000000       -0.0000000000000000     
   347.00000000000000       -0.0000000000000000     
   348.00000000000000       -0.0000000000000000     
   349.00000000000000       -0.0000000000000000     
   350.00000000000000       -0.0000000000000000     
   351.00000000000000       -0.0000000000000000     
   352.00000000000000       -0.0000000000000000     
   353.00000000000000       -0.0000000000000000     
   354.00000000000000       -0.0000000000000000     
   355.00000000000000       -0.0000000000000000     
   356.00000000000000       -0.0000000000000000     
   357.00000000000000       -0.0000000000000000     
   358.00000000000000       -0.0000000000000000     
   359.00000000000000       -0.0000000000000000     
   360.00000000000000       -0.0000000000000000     
   361.00000000000000       -0.0000000000000000     
   362.00000000000000       -0.0000000000000000     
   363.00000000000000       -0.0000000000000000     
   364.00000000000000       -0.0000000000000000     
   365.00000000000000       -0.0000000000000000     
   366.00000000000000       -0.0000000000000000     
   367.00000000000000       -0.0000000000000000     
   368.00000000000000       -0.0000000000000000     
   369.00000000000000       -0.0000000000000000     
   370.00000000000000       -0.0000000000000000     
   371.00000000000000       -0.0000000000000000     
   372.00000000000000       -0.0000000000000000     
   373.00000000000000       -0.0000000000000000     
   374.00000000000000       -0.0000000000000000     
   375.00000000000000       -0.0000000000000000     
   376.00000000000000       -0.0000000000000000     
