# Recoil energy (kev)        Event rate (events/gev)
   1.0000000000000000       0.70522390381767441     
   2.0000000000000000        3.2247723157245733     
   3.0000000000000000        7.4602309950067403     
   4.0000000000000000        13.273514555203626     
   5.0000000000000000        20.531528809282790     
   6.0000000000000000        29.106885506067087     
   7.0000000000000000        38.877168171171455     
   8.0000000000000000        49.725275251425906     
   9.0000000000000000        61.539263641092496     
   10.000000000000000        74.212351024967518     
   11.000000000000000        87.642777958293721     
   12.000000000000000        101.73377280997950     
   13.000000000000000        116.39344920123806     
   14.000000000000000        131.53470034017477     
   15.000000000000000        147.07509640238388     
   16.000000000000000        162.93676900759007     
   17.000000000000000        179.04637930425156     
   18.000000000000000        195.33468574266098     
   19.000000000000000        211.73697586327771     
   20.000000000000000        228.19243111476555     
   21.000000000000000        244.64412455148630     
   22.000000000000000        261.03912969161138     
   23.000000000000000        277.32826185662418     
   24.000000000000000        293.46520712012864     
   25.000000000000000        309.40818145055749     
   26.000000000000000        325.11791902356777     
   27.000000000000000        340.55855976525385     
   28.000000000000000        355.69736384086480     
   29.000000000000000        370.50403426542238     
   30.000000000000000        384.95176667754993     
   31.000000000000000        399.01596236587579     
   32.000000000000000        412.67457695406205     
   33.000000000000000        425.90806854463807     
   34.000000000000000        438.69954939911730     
   35.000000000000000        451.03355257418309     
   36.000000000000000        462.89682455072381     
   37.000000000000000        474.27891069104618     
   38.000000000000000        485.17018527241999     
   39.000000000000000        495.56389558748884     
   40.000000000000000        505.45370782513140     
   41.000000000000000        514.83533539523421     
   42.000000000000000        523.70654998023281     
   43.000000000000000        532.06545241423908     
   44.000000000000000        539.91228139370162     
   45.000000000000000        547.24805974183323     
   46.000000000000000        554.07479086720434     
   47.000000000000000        560.39551275249630     
   48.000000000000000        566.21422352511399     
   49.000000000000000        571.53580997138658     
   50.000000000000000        576.36597895723526     
   51.000000000000000        580.71119171290059     
   52.000000000000000        584.57860093460295     
   53.000000000000000        587.97599065186910     
   54.000000000000000        590.91171880566628     
   55.000000000000000        593.39466247932285     
   56.000000000000000        595.43416572158230     
   57.000000000000000        597.03998989887180     
   58.000000000000000        598.22226651198207     
   59.000000000000000        598.99145241090298     
   60.000000000000000        599.35828734031088     
   61.000000000000000        599.33375374739103     
   62.000000000000000        598.92903878303844     
   63.000000000000000        598.15549842714609     
   64.000000000000000        597.02462366857662     
   65.000000000000000        595.54800867050494     
   66.000000000000000        593.73732085208849     
   67.000000000000000        591.60427281789941     
   68.000000000000000        589.16059606714930     
   69.000000000000000        586.41801641548193     
   70.000000000000000        583.38823106299549     
   71.000000000000000        580.08288724312683     
   72.000000000000000        576.51356238812093     
   73.000000000000000        572.69174574797330     
   74.000000000000000        568.62882140095894     
   75.000000000000000        564.33605259519993     
   76.000000000000000        559.82456736205302     
   77.000000000000000        555.10534534351950     
   78.000000000000000        550.18920577732456     
   79.000000000000000        545.08679658478718     
   80.000000000000000        539.80858450809978     
   81.000000000000000        534.36484624516459     
   82.000000000000000        528.76566053163128     
   83.000000000000000        523.02090112136261     
   84.000000000000000        517.14023061805665     
   85.000000000000000        511.13309511229380     
   86.000000000000000        505.00871957981565     
   87.000000000000000        498.77610399835612     
   88.000000000000000        492.44402014184232     
   89.000000000000000        486.02100901227834     
   90.000000000000000        479.51537887108498     
   91.000000000000000        472.93520383313370     
   92.000000000000000        466.28832298811483     
   93.000000000000000        459.58234001528524     
   94.000000000000000        452.82462325903003     
   95.000000000000000        446.02230623399691     
   96.000000000000000        439.18228852987517     
   97.000000000000000        432.31123708720213     
   98.000000000000000        425.41558781678953     
   99.000000000000000        418.50154753663895     
   100.00000000000000        411.57509620135528     
   101.00000000000000        404.64198940024875     
   102.00000000000000        397.70776110144834     
   103.00000000000000        390.77772662040536     
   104.00000000000000        383.85698579227579     
   105.00000000000000        376.95042632864573     
   106.00000000000000        370.06272734008678     
   107.00000000000000        363.19836300697779     
   108.00000000000000        356.36160638195412     
   109.00000000000000        349.55653330825305     
   110.00000000000000        342.78702643906666     
   111.00000000000000        336.05677934387063     
   112.00000000000000        329.36930068846669     
   113.00000000000000        322.72791847629486     
   114.00000000000000        316.13578433925608     
   115.00000000000000        309.59587786704316     
   116.00000000000000        303.11101096464108     
   117.00000000000000        296.68383222831989     
   118.00000000000000        290.31683133106441     
   119.00000000000000        284.01234340899907     
   120.00000000000000        277.77255344093032     
   121.00000000000000        271.59950061368755     
   122.00000000000000        265.49508266647086     
   123.00000000000000        259.46106020790046     
   124.00000000000000        253.49906099997611     
   125.00000000000000        247.61058420356252     
   126.00000000000000        241.79700458050573     
   127.00000000000000        236.05957664785208     
   128.00000000000000        230.39943878006798     
   129.00000000000000        224.81761725551334     
   130.00000000000000        219.31503024378767     
   131.00000000000000        213.89249173089451     
   132.00000000000000        208.55071537949681     
   133.00000000000000        203.29031832183279     
   134.00000000000000        198.11182488314697     
   135.00000000000000        193.01567023376020     
   136.00000000000000        188.00220396815931     
   137.00000000000000        183.07169360972335     
   138.00000000000000        178.22432803992714     
   139.00000000000000        173.46022085107663     
   140.00000000000000        168.77941362183071     
   141.00000000000000        164.18187911495227     
   142.00000000000000        159.66752439688594     
   143.00000000000000        155.23619387896238     
   144.00000000000000        150.88767228013779     
   145.00000000000000        146.62168751134865     
   146.00000000000000        142.43791348167943     
   147.00000000000000        138.33597282667196     
   148.00000000000000        134.31543955920699     
   149.00000000000000        130.37584164350557     
   150.00000000000000        126.51666349288641     
   151.00000000000000        122.73734839200537     
   152.00000000000000        119.03730084438625     
   153.00000000000000        115.41588884612689     
   154.00000000000000        111.87244608672596     
   155.00000000000000        108.40627407804624     
   156.00000000000000        105.01664421247791     
   157.00000000000000        101.70279975141871     
   158.00000000000000        98.463957745231539     
   159.00000000000000        95.299310885874092     
   160.00000000000000        92.208029293440219     
   161.00000000000000        89.189262237872413     
   162.00000000000000        86.242139797134172     
   163.00000000000000        83.365774453151062     
   164.00000000000000        80.559262626852075     
   165.00000000000000        77.821686153649395     
   166.00000000000000        75.152113700711993     
   167.00000000000000        72.549602127393101     
   168.00000000000000        70.013197790176633     
   169.00000000000000        67.541937793511991     
   170.00000000000000        65.134851187904786     
   171.00000000000000        62.790960116626579     
   172.00000000000000        60.509280912408656     
   173.00000000000000        58.288825145468167     
   174.00000000000000        56.128600624216411     
   175.00000000000000        54.027612349980920     
   176.00000000000000        51.984863427065662     
   177.00000000000000        49.999355929459533     
   178.00000000000000        48.070091725486364     
   179.00000000000000        46.196073261676219     
   180.00000000000000        44.376304307122247     
   181.00000000000000        42.609790659561767     
   182.00000000000000        40.895540814414836     
   183.00000000000000        39.232566597979179     
   184.00000000000000        37.619883765969320     
   185.00000000000000        36.056512568567413     
   186.00000000000000        34.541478283123006     
   187.00000000000000        33.073811715629354     
   188.00000000000000        31.652549672069288     
   189.00000000000000        30.276735400711274     
   190.00000000000000        28.945419006406986     
   191.00000000000000        27.657657837920404     
   192.00000000000000        26.412516849297067     
   193.00000000000000        25.209068936253630     
   194.00000000000000        24.046395248552621     
   195.00000000000000        22.923585479295170     
   196.00000000000000        21.839738132046183     
   197.00000000000000        20.793960766682865     
   198.00000000000000        19.785370224831627     
   199.00000000000000        18.813092835737603     
   200.00000000000000        17.876264603389103     
   201.00000000000000        16.974031375690622     
   202.00000000000000        16.105548996464055     
   203.00000000000000        15.269983441029156     
   204.00000000000000        14.466510936093554     
   205.00000000000000        13.694318064662674     
   206.00000000000000        12.952601856657211     
   207.00000000000000        12.240569865903703     
   208.00000000000000        11.557440234144531     
   209.00000000000000        10.902441742693465     
   210.00000000000000        10.274813852339875     
   211.00000000000000        9.6738067320884547     
   212.00000000000000        9.0986812773001304     
   213.00000000000000        8.5487091177804349     
   214.00000000000000        8.0231726163437109     
   215.00000000000000        7.5213648583637287     
   216.00000000000000        7.0425896328018665     
   217.00000000000000        6.5861614051880366     
   218.00000000000000        6.1514052830113544     
   219.00000000000000        5.7376569739615739     
   220.00000000000000        5.3442627374462051     
   221.00000000000000        4.9705793297906560     
   222.00000000000000        4.6159739435157361     
   223.00000000000000        4.2798241410696320     
   224.00000000000000        3.9615177833779067     
   225.00000000000000        3.6604529535605130     
   226.00000000000000        3.3760378761499834     
   227.00000000000000        3.1076908321335921     
   228.00000000000000        2.8548400701261243     
   229.00000000000000        2.6169237139694634     
   230.00000000000000        2.3933896670418782     
   231.00000000000000        2.1836955135476734     
   232.00000000000000        1.9873084170462476     
   233.00000000000000        1.8037050164687183     
   234.00000000000000        1.6323713198583027     
   235.00000000000000        1.4728025960611499     
   236.00000000000000        1.3245032645827961     
   237.00000000000000        1.1869867838164858     
   238.00000000000000        1.0597755378391653     
   239.00000000000000       0.94240072196188140     
   240.00000000000000       0.83440222721232893     
   241.00000000000000       0.73532852391855086     
   242.00000000000000       0.64473654455409912     
   243.00000000000000       0.56219156599720033     
   244.00000000000000       0.48726709134832896     
   245.00000000000000       0.41954473144302590     
   246.00000000000000       0.35861408618975710     
   247.00000000000000       0.30407262585524159     
   248.00000000000000       0.25552557241297935     
   249.00000000000000       0.21258578106435960     
   250.00000000000000       0.17487362203524429     
   251.00000000000000       0.14201686274492126     
   252.00000000000000       0.11365055043861605     
   253.00000000000000        8.9416895368979829E-002
   254.00000000000000        6.8965154606821163E-002
   255.00000000000000        5.1951516556076285E-002
   256.00000000000000        3.8038986243008388E-002
   257.00000000000000        2.6897271445126141E-002
   258.00000000000000        1.8202669720486838E-002
   259.00000000000000        1.1637956393920890E-002
   260.00000000000000        6.8922735524273842E-003
   261.00000000000000        3.6610200980427359E-003
   262.00000000000000        1.6457429026923700E-003
   263.00000000000000        5.5402910583762907E-004
   264.00000000000000        9.9399592303146960E-005
   265.00000000000000        1.2036843117531802E-006
   266.00000000000000       -0.0000000000000000     
   267.00000000000000       -0.0000000000000000     
   268.00000000000000       -0.0000000000000000     
   269.00000000000000       -0.0000000000000000     
   270.00000000000000       -0.0000000000000000     
   271.00000000000000       -0.0000000000000000     
   272.00000000000000       -0.0000000000000000     
   273.00000000000000       -0.0000000000000000     
   274.00000000000000       -0.0000000000000000     
   275.00000000000000       -0.0000000000000000     
   276.00000000000000       -0.0000000000000000     
   277.00000000000000       -0.0000000000000000     
   278.00000000000000       -0.0000000000000000     
   279.00000000000000       -0.0000000000000000     
   280.00000000000000       -0.0000000000000000     
   281.00000000000000       -0.0000000000000000     
   282.00000000000000       -0.0000000000000000     
   283.00000000000000       -0.0000000000000000     
   284.00000000000000       -0.0000000000000000     
   285.00000000000000       -0.0000000000000000     
   286.00000000000000       -0.0000000000000000     
   287.00000000000000       -0.0000000000000000     
   288.00000000000000       -0.0000000000000000     
   289.00000000000000       -0.0000000000000000     
   290.00000000000000       -0.0000000000000000     
   291.00000000000000       -0.0000000000000000     
   292.00000000000000       -0.0000000000000000     
   293.00000000000000       -0.0000000000000000     
   294.00000000000000       -0.0000000000000000     
   295.00000000000000       -0.0000000000000000     
   296.00000000000000       -0.0000000000000000     
   297.00000000000000       -0.0000000000000000     
   298.00000000000000       -0.0000000000000000     
   299.00000000000000       -0.0000000000000000     
   300.00000000000000       -0.0000000000000000     
   301.00000000000000       -0.0000000000000000     
   302.00000000000000       -0.0000000000000000     
   303.00000000000000       -0.0000000000000000     
   304.00000000000000       -0.0000000000000000     
   305.00000000000000       -0.0000000000000000     
   306.00000000000000       -0.0000000000000000     
   307.00000000000000       -0.0000000000000000     
   308.00000000000000       -0.0000000000000000     
   309.00000000000000       -0.0000000000000000     
   310.00000000000000       -0.0000000000000000     
   311.00000000000000       -0.0000000000000000     
   312.00000000000000       -0.0000000000000000     
   313.00000000000000       -0.0000000000000000     
   314.00000000000000       -0.0000000000000000     
   315.00000000000000       -0.0000000000000000     
   316.00000000000000       -0.0000000000000000     
   317.00000000000000       -0.0000000000000000     
   318.00000000000000       -0.0000000000000000     
   319.00000000000000       -0.0000000000000000     
   320.00000000000000       -0.0000000000000000     
   321.00000000000000       -0.0000000000000000     
   322.00000000000000       -0.0000000000000000     
   323.00000000000000       -0.0000000000000000     
   324.00000000000000       -0.0000000000000000     
   325.00000000000000       -0.0000000000000000     
   326.00000000000000       -0.0000000000000000     
   327.00000000000000       -0.0000000000000000     
   328.00000000000000       -0.0000000000000000     
   329.00000000000000       -0.0000000000000000     
   330.00000000000000       -0.0000000000000000     
   331.00000000000000       -0.0000000000000000     
   332.00000000000000       -0.0000000000000000     
   333.00000000000000       -0.0000000000000000     
   334.00000000000000       -0.0000000000000000     
   335.00000000000000       -0.0000000000000000     
   336.00000000000000       -0.0000000000000000     
   337.00000000000000       -0.0000000000000000     
   338.00000000000000       -0.0000000000000000     
   339.00000000000000       -0.0000000000000000     
   340.00000000000000       -0.0000000000000000     
   341.00000000000000       -0.0000000000000000     
   342.00000000000000       -0.0000000000000000     
   343.00000000000000       -0.0000000000000000     
   344.00000000000000       -0.0000000000000000     
   345.00000000000000       -0.0000000000000000     
   346.00000000000000       -0.0000000000000000     
   347.00000000000000       -0.0000000000000000     
   348.00000000000000       -0.0000000000000000     
   349.00000000000000       -0.0000000000000000     
   350.00000000000000       -0.0000000000000000     
   351.00000000000000       -0.0000000000000000     
   352.00000000000000       -0.0000000000000000     
   353.00000000000000       -0.0000000000000000     
   354.00000000000000       -0.0000000000000000     
   355.00000000000000       -0.0000000000000000     
   356.00000000000000       -0.0000000000000000     
   357.00000000000000       -0.0000000000000000     
   358.00000000000000       -0.0000000000000000     
   359.00000000000000       -0.0000000000000000     
   360.00000000000000       -0.0000000000000000     
   361.00000000000000       -0.0000000000000000     
   362.00000000000000       -0.0000000000000000     
   363.00000000000000       -0.0000000000000000     
   364.00000000000000       -0.0000000000000000     
   365.00000000000000       -0.0000000000000000     
   366.00000000000000       -0.0000000000000000     
   367.00000000000000       -0.0000000000000000     
   368.00000000000000       -0.0000000000000000     
   369.00000000000000       -0.0000000000000000     
   370.00000000000000       -0.0000000000000000     
   371.00000000000000       -0.0000000000000000     
   372.00000000000000       -0.0000000000000000     
   373.00000000000000       -0.0000000000000000     
   374.00000000000000       -0.0000000000000000     
   375.00000000000000       -0.0000000000000000     
   376.00000000000000       -0.0000000000000000     
