# Recoil energy (kev)        Event rate (events/gev)
   1.0000000000000000       0.96919838653219825     
   2.0000000000000000        3.7790829912826278     
   3.0000000000000000        8.2869855012042528     
   4.0000000000000000        14.355469533463518     
   5.0000000000000000        21.852353658513792     
   6.0000000000000000        30.650711806021800     
   7.0000000000000000        40.628858826627393     
   8.0000000000000000        51.670334102388026     
   9.0000000000000000        63.663815462884664     
   10.000000000000000        76.503124365966229     
   11.000000000000000        90.087085609124046     
   12.000000000000000        104.31949420886797     
   13.000000000000000        119.10901257614712     
   14.000000000000000        134.36906497956710     
   15.000000000000000        150.01773535419463     
   16.000000000000000        165.97765193279980     
   17.000000000000000        182.17595693989762     
   18.000000000000000        198.54387038635238     
   19.000000000000000        215.01712945695084     
   20.000000000000000        231.53534719643724     
   21.000000000000000        248.04201233293037     
   22.000000000000000        264.48460081155150     
   23.000000000000000        280.81431595794186     
   24.000000000000000        296.98521208002194     
   25.000000000000000        312.95586807409813     
   26.000000000000000        328.68736141336262     
   27.000000000000000        344.14416380298064     
   28.000000000000000        359.29385443323196     
   29.000000000000000        374.10644138636854     
   30.000000000000000        388.55541525863219     
   31.000000000000000        402.61645909220528     
   32.000000000000000        416.26779867273262     
   33.000000000000000        429.49015130945008     
   34.000000000000000        442.26687884485023     
   35.000000000000000        454.58275101562907     
   36.000000000000000        466.42474123611373     
   37.000000000000000        477.78261388502568     
   38.000000000000000        488.64695096046205     
   39.000000000000000        499.01119806358895     
   40.000000000000000        508.86921195580186     
   41.000000000000000        518.21688665853276     
   42.000000000000000        527.05216685365701     
   43.000000000000000        535.37331800590596     
   44.000000000000000        543.18073559718880     
   45.000000000000000        550.47559174265371     
   46.000000000000000        557.26003186924277     
   47.000000000000000        563.53722899665763     
   48.000000000000000        569.31130956099196     
   49.000000000000000        574.58728217566738     
   50.000000000000000        579.37096929256677     
   51.000000000000000        583.66894172098318     
   52.000000000000000        587.48845595729233     
   53.000000000000000        590.83739427411888     
   54.000000000000000        593.72420751419361     
   55.000000000000000        596.15786053093768     
   56.000000000000000        598.14778021518191     
   57.000000000000000        599.70380604517607     
   58.000000000000000        600.83614309516486     
   59.000000000000000        601.55531743634674     
   60.000000000000000        601.87213386281212     
   61.000000000000000        601.79763587422110     
   62.000000000000000        601.34306784636817     
   63.000000000000000        600.51983932043584     
   64.000000000000000        599.33949134163345     
   65.000000000000000        597.81366477801384     
   66.000000000000000        595.95407055052578     
   67.000000000000000        593.77246170584567     
   68.000000000000000        591.28060726412457     
   69.000000000000000        588.49026777453707     
   70.000000000000000        585.41317251239889     
   71.000000000000000        582.06099825260003     
   72.000000000000000        578.44534955518270     
   73.000000000000000        574.57774050006572     
   74.000000000000000        570.46957780913476     
   75.000000000000000        566.13214529526306     
   76.000000000000000        561.57658957915055     
   77.000000000000000        556.81390701629232     
   78.000000000000000        551.85493177783258     
   79.000000000000000        546.71032503052834     
   80.000000000000000        541.39056516254823     
   81.000000000000000        535.90593900335637     
   82.000000000000000        530.26653398743258     
   83.000000000000000        524.48223121314516     
   84.000000000000000        518.56269934962017     
   85.000000000000000        512.51738934595608     
   86.000000000000000        506.35552989870121     
   87.000000000000000        500.08612363499958     
   88.000000000000000        493.71794397031636     
   89.000000000000000        487.25953260115193     
   90.000000000000000        480.71919759459843     
   91.000000000000000        474.10501203807121     
   92.000000000000000        467.42481321393444     
   93.000000000000000        460.68620226515310     
   94.000000000000000        453.89654431948509     
   95.000000000000000        447.06296904105199     
   96.000000000000000        440.19237157943707     
   97.000000000000000        433.29141388776901     
   98.000000000000000        426.36652638245846     
   99.000000000000000        419.42390991852488     
   100.00000000000000        412.46953805559713     
   101.00000000000000        405.50915959083960     
   102.00000000000000        398.54830133620004     
   103.00000000000000        391.59227111841489     
   104.00000000000000        384.64616098132797     
   105.00000000000000        377.71485057104479     
   106.00000000000000        370.80301068546737     
   107.00000000000000        363.91510697070584     
   108.00000000000000        357.05540374777951     
   109.00000000000000        350.22796795393208     
   110.00000000000000        343.43667318372263     
   111.00000000000000        336.68520381591190     
   112.00000000000000        329.97705921292965     
   113.00000000000000        323.31555798052585     
   114.00000000000000        316.70384227589290     
   115.00000000000000        310.14488215329931     
   116.00000000000000        303.64147993693979     
   117.00000000000000        297.19627461136452     
   118.00000000000000        290.81174622047291     
   119.00000000000000        284.49022026666705     
   120.00000000000000        278.23387210232551     
   121.00000000000000        272.04473130631328     
   122.00000000000000        265.92468603876972     
   123.00000000000000        259.87548736790507     
   124.00000000000000        253.89875356304358     
   125.00000000000000        247.99597434855855     
   126.00000000000000        242.16851511383948     
   127.00000000000000        236.41762107478459     
   128.00000000000000        230.74442138274932     
   129.00000000000000        225.14993317722792     
   130.00000000000000        219.63506557891259     
   131.00000000000000        214.20062362010123     
   132.00000000000000        208.84731210974817     
   133.00000000000000        203.57573943075229     
   134.00000000000000        198.38642126735613     
   135.00000000000000        193.27978426080304     
   136.00000000000000        188.25616959165109     
   137.00000000000000        183.31583648738095     
   138.00000000000000        178.45896565415634     
   139.00000000000000        173.68566263180935     
   140.00000000000000        168.99596107132095     
   141.00000000000000        164.38982593425820     
   142.00000000000000        159.86715661377826     
   143.00000000000000        155.42778997701507     
   144.00000000000000        151.07150332877208     
   145.00000000000000        146.79801729661332     
   146.00000000000000        142.60699863756454     
   147.00000000000000        138.49806296676473     
   148.00000000000000        134.47077740851066     
   149.00000000000000        130.52466317025355     
   150.00000000000000        126.65919804019433     
   151.00000000000000        122.87381880921446     
   152.00000000000000        119.16792361796037     
   153.00000000000000        115.54087422997631     
   154.00000000000000        111.99199823183800     
   155.00000000000000        108.52059116131328     
   156.00000000000000        105.12591856461995     
   157.00000000000000        101.80721798390576     
   158.00000000000000        98.563700876118716     
   159.00000000000000        95.394554464468868     
   160.00000000000000        92.298943523727701     
   161.00000000000000        89.276012100631590     
   162.00000000000000        86.324885170682904     
   163.00000000000000        83.444670232664123     
   164.00000000000000        80.634458842201212     
   165.00000000000000        77.893328085720100     
   166.00000000000000        75.220341996155739     
   167.00000000000000        72.614552911778958     
   168.00000000000000        70.075002779509987     
   169.00000000000000        67.600724404092389     
   170.00000000000000        65.190742644498556     
   171.00000000000000        62.844075558933888     
   172.00000000000000        60.559735499807232     
   173.00000000000000        58.336730160020082     
   174.00000000000000        56.174063571926609     
   175.00000000000000        54.070737060299216     
   176.00000000000000        52.025750150626784     
   177.00000000000000        50.038101434057772     
   178.00000000000000        48.106789390284291     
   179.00000000000000        46.230813169648741     
   180.00000000000000        44.409173335739311     
   181.00000000000000        42.640872569715128     
   182.00000000000000        40.924916337595789     
   183.00000000000000        39.260313521716036     
   184.00000000000000        37.646077017534900     
   185.00000000000000        36.081224296967918     
   186.00000000000000        34.564777939381571     
   187.00000000000000        33.095766131377999     
   188.00000000000000        31.673223136464816     
   189.00000000000000        30.296189735691247     
   190.00000000000000        28.963713640302881     
   191.00000000000000        27.674849877446132     
   192.00000000000000        26.428661149931514     
   193.00000000000000        25.224218171036807     
   194.00000000000000        24.060599975315508     
   195.00000000000000        22.936894206343904     
   196.00000000000000        21.852197382321826     
   197.00000000000000        20.805615140418357     
   198.00000000000000        19.796262460727942     
   199.00000000000000        18.823263870681398     
   200.00000000000000        17.885753630734534     
   201.00000000000000        16.982875902128203     
   202.00000000000000        16.113784897499563     
   203.00000000000000        15.277645015095816     
   204.00000000000000        14.473630957320861     
   205.00000000000000        13.700927834325183     
   206.00000000000000        12.958731253326802     
   207.00000000000000        12.246247394328744     
   208.00000000000000        11.562693072879412     
   209.00000000000000        10.907295790501882     
   210.00000000000000        10.279293773395159     
   211.00000000000000        9.6779359999942773     
   212.00000000000000        9.1024822179545737     
   213.00000000000000        8.5522029511065334     
   214.00000000000000        8.0263794969091879     
   215.00000000000000        7.5243039149126520     
   216.00000000000000        7.0452790067206505     
   217.00000000000000        6.5886182879280488     
   218.00000000000000        6.1536459524901774     
   219.00000000000000        5.7396968299647426     
   220.00000000000000        5.3461163360509465     
   221.00000000000000        4.9722604168329960     
   222.00000000000000        4.6174954871219853     
   223.00000000000000        4.2811983632730621     
   224.00000000000000        3.9627561908411040     
   225.00000000000000        3.6615663674236418     
   226.00000000000000        3.3770364610248866     
   227.00000000000000        3.1085841242633636     
   228.00000000000000        2.8556370047294961     
   229.00000000000000        2.6176326517890325     
   230.00000000000000        2.3940184201149108     
   231.00000000000000        2.1842513702178930     
   232.00000000000000        1.9877981662347304     
   233.00000000000000        1.8041349712216790     
   234.00000000000000        1.6327473401892600     
   235.00000000000000        1.4731301111046429     
   236.00000000000000        1.3247872940765015     
   237.00000000000000        1.1872319589282867     
   238.00000000000000        1.0599861213553960     
   239.00000000000000       0.94258062785267016     
   240.00000000000000       0.83455503958964927     
   241.00000000000000       0.73545751540228022     
   242.00000000000000       0.64484469406107725     
   243.00000000000000       0.56228157596798367     
   244.00000000000000       0.48734140442602364     
   245.00000000000000       0.41960554661829191     
   246.00000000000000       0.35866337442577545     
   247.00000000000000       0.30411214520614482     
   248.00000000000000       0.25555688264895476     
   249.00000000000000       0.21261025781634812     
   250.00000000000000       0.17489247047187548     
   251.00000000000000       0.14203113079404356     
   252.00000000000000       0.11366114156550720     
   253.00000000000000        8.9424580923048960E-002
   254.00000000000000        6.8970585748346427E-002
   255.00000000000000        5.1955235774257563E-002
   256.00000000000000        3.8041438476354064E-002
   257.00000000000000        2.6898814814936823E-002
   258.00000000000000        1.8203585887946905E-002
   259.00000000000000        1.1638460551060808E-002
   260.00000000000000        6.8925240569759254E-003
   261.00000000000000        3.6611277619487685E-003
   262.00000000000000        1.6457799438606034E-003
   263.00000000000000        5.5403777239166555E-004
   264.00000000000000        9.9400468462354863E-005
   265.00000000000000        1.2036867459391650E-006
   266.00000000000000       -0.0000000000000000     
   267.00000000000000       -0.0000000000000000     
   268.00000000000000       -0.0000000000000000     
   269.00000000000000       -0.0000000000000000     
   270.00000000000000       -0.0000000000000000     
   271.00000000000000       -0.0000000000000000     
   272.00000000000000       -0.0000000000000000     
   273.00000000000000       -0.0000000000000000     
   274.00000000000000       -0.0000000000000000     
   275.00000000000000       -0.0000000000000000     
   276.00000000000000       -0.0000000000000000     
   277.00000000000000       -0.0000000000000000     
   278.00000000000000       -0.0000000000000000     
   279.00000000000000       -0.0000000000000000     
   280.00000000000000       -0.0000000000000000     
   281.00000000000000       -0.0000000000000000     
   282.00000000000000       -0.0000000000000000     
   283.00000000000000       -0.0000000000000000     
   284.00000000000000       -0.0000000000000000     
   285.00000000000000       -0.0000000000000000     
   286.00000000000000       -0.0000000000000000     
   287.00000000000000       -0.0000000000000000     
   288.00000000000000       -0.0000000000000000     
   289.00000000000000       -0.0000000000000000     
   290.00000000000000       -0.0000000000000000     
   291.00000000000000       -0.0000000000000000     
   292.00000000000000       -0.0000000000000000     
   293.00000000000000       -0.0000000000000000     
   294.00000000000000       -0.0000000000000000     
   295.00000000000000       -0.0000000000000000     
   296.00000000000000       -0.0000000000000000     
   297.00000000000000       -0.0000000000000000     
   298.00000000000000       -0.0000000000000000     
   299.00000000000000       -0.0000000000000000     
   300.00000000000000       -0.0000000000000000     
   301.00000000000000       -0.0000000000000000     
   302.00000000000000       -0.0000000000000000     
   303.00000000000000       -0.0000000000000000     
   304.00000000000000       -0.0000000000000000     
   305.00000000000000       -0.0000000000000000     
   306.00000000000000       -0.0000000000000000     
   307.00000000000000       -0.0000000000000000     
   308.00000000000000       -0.0000000000000000     
   309.00000000000000       -0.0000000000000000     
   310.00000000000000       -0.0000000000000000     
   311.00000000000000       -0.0000000000000000     
   312.00000000000000       -0.0000000000000000     
   313.00000000000000       -0.0000000000000000     
   314.00000000000000       -0.0000000000000000     
   315.00000000000000       -0.0000000000000000     
   316.00000000000000       -0.0000000000000000     
   317.00000000000000       -0.0000000000000000     
   318.00000000000000       -0.0000000000000000     
   319.00000000000000       -0.0000000000000000     
   320.00000000000000       -0.0000000000000000     
   321.00000000000000       -0.0000000000000000     
   322.00000000000000       -0.0000000000000000     
   323.00000000000000       -0.0000000000000000     
   324.00000000000000       -0.0000000000000000     
   325.00000000000000       -0.0000000000000000     
   326.00000000000000       -0.0000000000000000     
   327.00000000000000       -0.0000000000000000     
   328.00000000000000       -0.0000000000000000     
   329.00000000000000       -0.0000000000000000     
   330.00000000000000       -0.0000000000000000     
   331.00000000000000       -0.0000000000000000     
   332.00000000000000       -0.0000000000000000     
   333.00000000000000       -0.0000000000000000     
   334.00000000000000       -0.0000000000000000     
   335.00000000000000       -0.0000000000000000     
   336.00000000000000       -0.0000000000000000     
   337.00000000000000       -0.0000000000000000     
   338.00000000000000       -0.0000000000000000     
   339.00000000000000       -0.0000000000000000     
   340.00000000000000       -0.0000000000000000     
   341.00000000000000       -0.0000000000000000     
   342.00000000000000       -0.0000000000000000     
   343.00000000000000       -0.0000000000000000     
   344.00000000000000       -0.0000000000000000     
   345.00000000000000       -0.0000000000000000     
   346.00000000000000       -0.0000000000000000     
   347.00000000000000       -0.0000000000000000     
   348.00000000000000       -0.0000000000000000     
   349.00000000000000       -0.0000000000000000     
   350.00000000000000       -0.0000000000000000     
   351.00000000000000       -0.0000000000000000     
   352.00000000000000       -0.0000000000000000     
   353.00000000000000       -0.0000000000000000     
   354.00000000000000       -0.0000000000000000     
   355.00000000000000       -0.0000000000000000     
   356.00000000000000       -0.0000000000000000     
   357.00000000000000       -0.0000000000000000     
   358.00000000000000       -0.0000000000000000     
   359.00000000000000       -0.0000000000000000     
   360.00000000000000       -0.0000000000000000     
   361.00000000000000       -0.0000000000000000     
   362.00000000000000       -0.0000000000000000     
   363.00000000000000       -0.0000000000000000     
   364.00000000000000       -0.0000000000000000     
   365.00000000000000       -0.0000000000000000     
   366.00000000000000       -0.0000000000000000     
   367.00000000000000       -0.0000000000000000     
   368.00000000000000       -0.0000000000000000     
   369.00000000000000       -0.0000000000000000     
   370.00000000000000       -0.0000000000000000     
   371.00000000000000       -0.0000000000000000     
   372.00000000000000       -0.0000000000000000     
   373.00000000000000       -0.0000000000000000     
   374.00000000000000       -0.0000000000000000     
   375.00000000000000       -0.0000000000000000     
   376.00000000000000       -0.0000000000000000     
