# Recoil energy (kev)        Event rate (events/gev)
   1.0000000000000000        3919.7057746907149     
   2.0000000000000000        7641.8271921065343     
   3.0000000000000000        11171.618604687290     
   4.0000000000000000        14514.369854700652     
   5.0000000000000000        17675.389406746290     
   6.0000000000000000        20659.989102758922     
   7.0000000000000000        23473.473407879479     
   8.0000000000000000        26121.135735465818     
   9.0000000000000000        28608.225903970382     
   10.000000000000000        30939.974029629022     
   11.000000000000000        33121.547903295534     
   12.000000000000000        35158.067796939235     
   13.000000000000000        37054.592751603341     
   14.000000000000000        38816.111958459667     
   15.000000000000000        40447.540489473562     
   16.000000000000000        41953.713298213166     
   17.000000000000000        43339.401574339616     
   18.000000000000000        44609.232448305782     
   19.000000000000000        45767.820428230109     
   20.000000000000000        46819.640872950578     
   21.000000000000000        47769.063088798721     
   22.000000000000000        48620.394935749347     
   23.000000000000000        49377.850496175481     
   24.000000000000000        50045.421928671756     
   25.000000000000000        50627.194593801411     
   26.000000000000000        51127.013986432656     
   27.000000000000000        51548.664313691639     
   28.000000000000000        51895.838021937598     
   29.000000000000000        52172.056982486327     
   30.000000000000000        52380.842958720190     
   31.000000000000000        52525.549320559134     
   32.000000000000000        52609.431627808313     
   33.000000000000000        52635.656172681614     
   34.000000000000000        52607.331307780136     
   35.000000000000000        52527.372828622989     
   36.000000000000000        52398.620116789680     
   37.000000000000000        52223.910659362584     
   38.000000000000000        52005.870278423507     
   39.000000000000000        51747.152434834599     
   40.000000000000000        51450.186814506735     
   41.000000000000000        51117.367017934463     
   42.000000000000000        50751.056146435294     
   43.000000000000000        50353.427648514589     
   44.000000000000000        49926.653167746794     
   45.000000000000000        49472.781110923330     
   46.000000000000000        48993.767335144694     
   47.000000000000000        48491.489664324086     
   48.000000000000000        47967.749767858855     
   49.000000000000000        47424.275051695069     
   50.000000000000000        46862.720557047862     
   51.000000000000000        46284.670862366722     
   52.000000000000000        45691.641984445574     
   53.000000000000000        45085.083274882236     
   54.000000000000000        44466.379308384923     
   55.000000000000000        43836.851759701633     
   56.000000000000000        43197.761266218899     
   57.000000000000000        42550.309273529972     
   58.000000000000000        41895.639861515876     
   59.000000000000000        41234.841548713506     
   60.000000000000000        40568.949072961797     
   61.000000000000000        39898.945146522870     
   62.000000000000000        39225.762184069361     
   63.000000000000000        38550.284002110311     
   64.000000000000000        37873.347488600615     
   65.000000000000000        37195.744241638051     
   66.000000000000000        36518.222176302923     
   67.000000000000000        35841.487098835831     
   68.000000000000000        35166.204247479916     
   69.000000000000000        34492.999799435762     
   70.000000000000000        33822.462343490850     
   71.000000000000000        33155.144317991027     
   72.000000000000000        32491.563413918924     
   73.000000000000000        31832.203942935150     
   74.000000000000000        31177.518170319920     
   75.000000000000000        30527.927612832529     
   76.000000000000000        29883.824301573852     
   77.000000000000000        29245.572010003965     
   78.000000000000000        28613.507447325344     
   79.000000000000000        27987.941417496309     
   80.000000000000000        27369.159944189509     
   81.000000000000000        26757.425362053531     
   82.000000000000000        26152.977374677099     
   83.000000000000000        25556.034079690944     
   84.000000000000000        24966.792961476003     
   85.000000000000000        24385.431851973532     
   86.000000000000000        23812.109860120225     
   87.000000000000000        23246.968270453010     
   88.000000000000000        22690.131411447324     
   89.000000000000000        22141.707494170550     
   90.000000000000000        21601.789421845122     
   91.000000000000000        21070.455570929422     
   92.000000000000000        20547.770544332845     
   93.000000000000000        20033.785897389378     
   94.000000000000000        19528.540837220895     
   95.000000000000000        19032.062896124095     
   96.000000000000000        18544.368579617854     
   97.000000000000000        18065.463989789372     
   98.000000000000000        17595.345424575808     
   99.000000000000000        17133.999953617920     
   100.00000000000000        16681.405971318181     
   101.00000000000000        16237.533727732378     
   102.00000000000000        15802.345837919427     
   103.00000000000000        15375.797770367039     
   104.00000000000000        14957.838315106168     
   105.00000000000000        14548.410032118576     
   106.00000000000000        14147.449680634349     
   107.00000000000000        13754.888629908266     
   108.00000000000000        13370.653252054088     
   109.00000000000000        12994.665297507703     
   110.00000000000000        12626.842253678635     
   111.00000000000000        12267.097687341064     
   112.00000000000000        11915.341571303294     
   113.00000000000000        11571.480595885931     
   114.00000000000000        11235.418465726001     
   115.00000000000000        10907.056182414928     
   116.00000000000000        10586.292313466052     
   117.00000000000000        10273.023248096708     
   118.00000000000000        9967.1434402978666     
   119.00000000000000        9668.5456396537174     
   120.00000000000000        9377.1211103613314     
   121.00000000000000        9092.7598388897441     
   122.00000000000000        8815.3507307062537     
   123.00000000000000        8544.7817964858714     
   124.00000000000000        8280.9403282098410     
   125.00000000000000        8023.7130655460505     
   126.00000000000000        7772.9863528953747     
   127.00000000000000        7528.6462874748022     
   128.00000000000000        7290.5788587989910     
   129.00000000000000        7058.6700799103155     
   130.00000000000000        6832.8061106972918     
   131.00000000000000        6612.8733736305985     
   132.00000000000000        6398.7586622359859     
   133.00000000000000        6190.3492426130915     
   134.00000000000000        5987.5329482993475     
   135.00000000000000        5790.1982687684640     
   136.00000000000000        5598.2344318435480     
   137.00000000000000        5411.5314802955636     
   138.00000000000000        5229.9803428885771     
   139.00000000000000        5053.4729001245150     
   140.00000000000000        4881.9020449313648     
   141.00000000000000        4715.1617385303653     
   142.00000000000000        4553.1470617088016     
   143.00000000000000        4395.7542617180334     
   144.00000000000000        4242.8807950073415     
   145.00000000000000        4094.4253659971173     
   146.00000000000000        3950.2879620872104     
   147.00000000000000        3810.3698850890528     
   148.00000000000000        3674.5737792628051     
   149.00000000000000        3542.8036561341855     
   150.00000000000000        3414.9649162587320     
   151.00000000000000        3290.9643680946779     
   152.00000000000000        3170.7102441394350     
   153.00000000000000        3054.1122144784817     
   154.00000000000000        2941.0813978893020     
   155.00000000000000        2831.5303706375794     
   156.00000000000000        2725.3731730969062     
   157.00000000000000        2622.5253143180912     
   158.00000000000000        2522.9037746687250     
   159.00000000000000        2426.4270066585964     
   160.00000000000000        2333.0149340617550     
   161.00000000000000        2242.5889494411472     
   162.00000000000000        2155.0719101771069     
   163.00000000000000        2070.3881330966046     
   164.00000000000000        1988.4633877959425     
   165.00000000000000        1909.2248887452242     
   166.00000000000000        1832.6012862591385     
   167.00000000000000        1758.5226564146160     
   168.00000000000000        1686.9204899921770     
   169.00000000000000        1617.7276805143167     
   170.00000000000000        1550.8785114507070     
   171.00000000000000        1486.3086426566515     
   172.00000000000000        1423.9550961081704     
   173.00000000000000        1363.7562409937923     
   174.00000000000000        1305.6517782203327     
   175.00000000000000        1249.5827243869790     
   176.00000000000000        1195.4913952793102     
   177.00000000000000        1143.3213889322103     
   178.00000000000000        1093.0175683080938     
   179.00000000000000        1044.5260436344308     
   180.00000000000000        997.79415444228300     
   181.00000000000000        952.77045134512150     
   182.00000000000000        909.40467759537773     
   183.00000000000000        867.64775045373881     
   184.00000000000000        827.45174240447500     
   185.00000000000000        788.76986224815539     
   186.00000000000000        751.55643610114748     
   187.00000000000000        715.76688832977720     
   188.00000000000000        681.35772244514249     
   189.00000000000000        648.28650198316393     
   190.00000000000000        616.51183139282875     
   191.00000000000000        585.99333695414418     
   192.00000000000000        556.69164774598903     
   193.00000000000000        528.56837668259880     
   194.00000000000000        501.58610163634035     
   195.00000000000000        475.70834666303580     
   196.00000000000000        450.89956334505075     
   197.00000000000000        427.12511226626219     
   198.00000000000000        404.35124463192108     
   199.00000000000000        382.54508404547533     
   200.00000000000000        361.67460845349416     
   201.00000000000000        341.70863226881261     
   202.00000000000000        322.61678868133777     
   203.00000000000000        304.36951216500148     
   204.00000000000000        286.93802118862061     
   205.00000000000000        270.29430113770979     
   206.00000000000000        254.41108745358386     
   207.00000000000000        239.26184899540343     
   208.00000000000000        224.82077163022615     
   209.00000000000000        211.06274205554752     
   210.00000000000000        197.96333185818577     
   211.00000000000000        185.49878181292888     
   212.00000000000000        173.64598642380281     
   213.00000000000000        162.38247871036887     
   214.00000000000000        151.68641524100880     
   215.00000000000000        141.53656141476390     
   216.00000000000000        131.91227699286017     
   217.00000000000000        122.79350188072145     
   218.00000000000000        114.16074216089895     
   219.00000000000000        105.99505637703888     
   220.00000000000000        98.278042068705346     
   221.00000000000000        90.991822556565083     
   222.00000000000000        84.119033977216361     
   223.00000000000000        77.642812566661888     
   224.00000000000000        71.546782191212827     
   225.00000000000000        65.815042124395930     
   226.00000000000000        60.432155068216133     
   227.00000000000000        55.383135416988026     
   228.00000000000000        50.653437761720689     
   229.00000000000000        46.228945632929339     
   230.00000000000000        42.095960479586459     
   231.00000000000000        38.241190881788896     
   232.00000000000000        34.651741994600854     
   233.00000000000000        31.315105220428254     
   234.00000000000000        28.219148107165584     
   235.00000000000000        25.352104469285813     
   236.00000000000000        22.702564728942441     
   237.00000000000000        20.259466474099899     
   238.00000000000000        18.012085230630795     
   239.00000000000000        15.950025445267746     
   240.00000000000000        14.063211676250130     
   241.00000000000000        12.341879988463658     
   242.00000000000000        10.776569549831903     
   243.00000000000000        9.3581144256959963     
   244.00000000000000        8.0776355678910257     
   245.00000000000000        6.9265329952102377     
   246.00000000000000        5.8964781619399655     
   247.00000000000000        4.9794065111353154     
   248.00000000000000        4.1675102093044654     
   249.00000000000000        3.4532310591738398     
   250.00000000000000        2.8292535872077940     
   251.00000000000000        2.2884983025658494     
   252.00000000000000        1.8241151241944247     
   253.00000000000000        1.4294769727621743     
   254.00000000000000        1.0981735241697572     
   255.00000000000000       0.82400512138390425     
   256.00000000000000       0.60097684136818996     
   257.00000000000000       0.42329271391262518     
   258.00000000000000       0.28535008918781163     
   259.00000000000000       0.18173415088301398     
   260.00000000000000       0.10721257181753122     
   261.00000000000000        5.6730308948989769E-002
   262.00000000000000        2.5404534737642748E-002
   263.00000000000000        8.5197018614640262E-003
   264.00000000000000        1.5227383154596743E-003
   265.00000000000000        1.8369966989041760E-005
   266.00000000000000       -0.0000000000000000     
   267.00000000000000       -0.0000000000000000     
   268.00000000000000       -0.0000000000000000     
   269.00000000000000       -0.0000000000000000     
   270.00000000000000       -0.0000000000000000     
   271.00000000000000       -0.0000000000000000     
   272.00000000000000       -0.0000000000000000     
   273.00000000000000       -0.0000000000000000     
   274.00000000000000       -0.0000000000000000     
   275.00000000000000       -0.0000000000000000     
   276.00000000000000       -0.0000000000000000     
   277.00000000000000       -0.0000000000000000     
   278.00000000000000       -0.0000000000000000     
   279.00000000000000       -0.0000000000000000     
   280.00000000000000       -0.0000000000000000     
   281.00000000000000       -0.0000000000000000     
   282.00000000000000       -0.0000000000000000     
   283.00000000000000       -0.0000000000000000     
   284.00000000000000       -0.0000000000000000     
   285.00000000000000       -0.0000000000000000     
   286.00000000000000       -0.0000000000000000     
   287.00000000000000       -0.0000000000000000     
   288.00000000000000       -0.0000000000000000     
   289.00000000000000       -0.0000000000000000     
   290.00000000000000       -0.0000000000000000     
   291.00000000000000       -0.0000000000000000     
   292.00000000000000       -0.0000000000000000     
   293.00000000000000       -0.0000000000000000     
   294.00000000000000       -0.0000000000000000     
   295.00000000000000       -0.0000000000000000     
   296.00000000000000       -0.0000000000000000     
   297.00000000000000       -0.0000000000000000     
   298.00000000000000       -0.0000000000000000     
   299.00000000000000       -0.0000000000000000     
   300.00000000000000       -0.0000000000000000     
   301.00000000000000       -0.0000000000000000     
   302.00000000000000       -0.0000000000000000     
   303.00000000000000       -0.0000000000000000     
   304.00000000000000       -0.0000000000000000     
   305.00000000000000       -0.0000000000000000     
   306.00000000000000       -0.0000000000000000     
   307.00000000000000       -0.0000000000000000     
   308.00000000000000       -0.0000000000000000     
   309.00000000000000       -0.0000000000000000     
   310.00000000000000       -0.0000000000000000     
   311.00000000000000       -0.0000000000000000     
   312.00000000000000       -0.0000000000000000     
   313.00000000000000       -0.0000000000000000     
   314.00000000000000       -0.0000000000000000     
   315.00000000000000       -0.0000000000000000     
   316.00000000000000       -0.0000000000000000     
   317.00000000000000       -0.0000000000000000     
   318.00000000000000       -0.0000000000000000     
   319.00000000000000       -0.0000000000000000     
   320.00000000000000       -0.0000000000000000     
   321.00000000000000       -0.0000000000000000     
   322.00000000000000       -0.0000000000000000     
   323.00000000000000       -0.0000000000000000     
   324.00000000000000       -0.0000000000000000     
   325.00000000000000       -0.0000000000000000     
   326.00000000000000       -0.0000000000000000     
   327.00000000000000       -0.0000000000000000     
   328.00000000000000       -0.0000000000000000     
   329.00000000000000       -0.0000000000000000     
   330.00000000000000       -0.0000000000000000     
   331.00000000000000       -0.0000000000000000     
   332.00000000000000       -0.0000000000000000     
   333.00000000000000       -0.0000000000000000     
   334.00000000000000       -0.0000000000000000     
   335.00000000000000       -0.0000000000000000     
   336.00000000000000       -0.0000000000000000     
   337.00000000000000       -0.0000000000000000     
   338.00000000000000       -0.0000000000000000     
   339.00000000000000       -0.0000000000000000     
   340.00000000000000       -0.0000000000000000     
   341.00000000000000       -0.0000000000000000     
   342.00000000000000       -0.0000000000000000     
   343.00000000000000       -0.0000000000000000     
   344.00000000000000       -0.0000000000000000     
   345.00000000000000       -0.0000000000000000     
   346.00000000000000       -0.0000000000000000     
   347.00000000000000       -0.0000000000000000     
   348.00000000000000       -0.0000000000000000     
   349.00000000000000       -0.0000000000000000     
   350.00000000000000       -0.0000000000000000     
   351.00000000000000       -0.0000000000000000     
   352.00000000000000       -0.0000000000000000     
   353.00000000000000       -0.0000000000000000     
   354.00000000000000       -0.0000000000000000     
   355.00000000000000       -0.0000000000000000     
   356.00000000000000       -0.0000000000000000     
   357.00000000000000       -0.0000000000000000     
   358.00000000000000       -0.0000000000000000     
   359.00000000000000       -0.0000000000000000     
   360.00000000000000       -0.0000000000000000     
   361.00000000000000       -0.0000000000000000     
   362.00000000000000       -0.0000000000000000     
   363.00000000000000       -0.0000000000000000     
   364.00000000000000       -0.0000000000000000     
   365.00000000000000       -0.0000000000000000     
   366.00000000000000       -0.0000000000000000     
   367.00000000000000       -0.0000000000000000     
   368.00000000000000       -0.0000000000000000     
   369.00000000000000       -0.0000000000000000     
   370.00000000000000       -0.0000000000000000     
   371.00000000000000       -0.0000000000000000     
   372.00000000000000       -0.0000000000000000     
   373.00000000000000       -0.0000000000000000     
   374.00000000000000       -0.0000000000000000     
   375.00000000000000       -0.0000000000000000     
   376.00000000000000       -0.0000000000000000     
