# Recoil energy (kev)        Event rate (events/gev)
   1.0000000000000000        468223.41592066525     
   2.0000000000000000        911776.71325393661     
   3.0000000000000000        1331369.4674371374     
   4.0000000000000000        1727712.5143395653     
   5.0000000000000000        2101515.8897313289     
   6.0000000000000000        2453487.0086245239     
   7.0000000000000000        2784329.3900779057     
   8.0000000000000000        3094742.2297143545     
   9.0000000000000000        3385416.5591336326     
   10.000000000000000        3657038.1031141491     
   11.000000000000000        3910282.2640486108     
   12.000000000000000        4145815.9140385268     
   13.000000000000000        4364295.8156581661     
   14.000000000000000        4566367.6532849446     
   15.000000000000000        4752665.5826619733     
   16.000000000000000        4923811.5809464501     
   17.000000000000000        5080417.4220900200     
   18.000000000000000        5223075.3222777573     
   19.000000000000000        5352373.4134926358     
   20.000000000000000        5468880.9754158566     
   21.000000000000000        5573152.3957394343     
   22.000000000000000        5665732.4440134028     
   23.000000000000000        5747152.5534585956     
   24.000000000000000        5817915.9908719882     
   25.000000000000000        5878534.6031319518     
   26.000000000000000        5929490.1270073587     
   27.000000000000000        5971255.0433119740     
   28.000000000000000        6004289.0956360921     
   29.000000000000000        6029030.2479823120     
   30.000000000000000        6045914.4803370666     
   31.000000000000000        6055356.3899638746     
   32.000000000000000        6057757.4369715704     
   33.000000000000000        6053506.9960817713     
   34.000000000000000        6042986.0186000848     
   35.000000000000000        6026551.6291815024     
   36.000000000000000        6004550.5695641227     
   37.000000000000000        5977327.7819748390     
   38.000000000000000        5945202.4314041147     
   39.000000000000000        5908495.3766730670     
   40.000000000000000        5867500.4809657894     
   41.000000000000000        5822506.1460068226     
   42.000000000000000        5773795.9737061840     
   43.000000000000000        5721630.7038682345     
   44.000000000000000        5666269.6650708234     
   45.000000000000000        5607957.0122183058     
   46.000000000000000        5546925.2866711719     
   47.000000000000000        5483397.1224197289     
   48.000000000000000        5417585.5128786331     
   49.000000000000000        5349694.0774703026     
   50.000000000000000        5279917.3274539467     
   51.000000000000000        5208440.9304983718     
   52.000000000000000        5135441.9735367680     
   53.000000000000000        5061089.2234804360     
   54.000000000000000        4985543.3854050823     
   55.000000000000000        4908957.3578588581     
   56.000000000000000        4831476.4849744597     
   57.000000000000000        4753238.8050997471     
   58.000000000000000        4674375.2956909854     
   59.000000000000000        4595010.1142414473     
   60.000000000000000        4515260.8350445181     
   61.000000000000000        4435238.6816156162     
   62.000000000000000        4355048.7546206135     
   63.000000000000000        4274790.2551803449     
   64.000000000000000        4194556.7034414224     
   65.000000000000000        4114436.1523224455     
   66.000000000000000        4034511.3963625827     
   67.000000000000000        3954860.1756159817     
   68.000000000000000        3875555.3745506168     
   69.000000000000000        3796665.2159244898     
   70.000000000000000        3718253.4496248937     
   71.000000000000000        3640379.5364687140     
   72.000000000000000        3563098.8269725773     
   73.000000000000000        3486462.7351117777     
   74.000000000000000        3410518.9070962574     
   75.000000000000000        3335311.3852002798     
   76.000000000000000        3260880.7666899948     
   77.000000000000000        3187264.3579001543     
   78.000000000000000        3114496.3235174236     
   79.000000000000000        3042607.8311332865     
   80.000000000000000        2971627.1911347117     
   81.000000000000000        2901579.9920049580     
   82.000000000000000        2832489.2311110790     
   83.000000000000000        2764375.4410579125     
   84.000000000000000        2697256.8116915342     
   85.000000000000000        2631149.3078374914     
   86.000000000000000        2566066.7828614861     
   87.000000000000000        2502021.0881419005     
   88.000000000000000        2439022.1785450266     
   89.000000000000000        2377078.2139949985     
   90.000000000000000        2316195.6572312904     
   91.000000000000000        2256379.3678473025     
   92.000000000000000        2197632.6927037444     
   93.000000000000000        2139957.5528107602     
   94.000000000000000        2083354.5267726392     
   95.000000000000000        2027822.9308886058     
   96.000000000000000        1973360.8960027285     
   97.000000000000000        1919965.4411954500     
   98.000000000000000        1867632.5444083011     
   99.000000000000000        1816357.2100926894     
   100.00000000000000        1766133.5339724263     
   101.00000000000000        1716954.7650086232     
   102.00000000000000        1668813.3646544004     
   103.00000000000000        1621701.0634854529     
   104.00000000000000        1575608.9152912113     
   105.00000000000000        1530527.3487098960     
   106.00000000000000        1486446.2164891378     
   107.00000000000000        1443354.8424524884     
   108.00000000000000        1401242.0662503089     
   109.00000000000000        1360096.2859721384     
   110.00000000000000        1319905.4986957503     
   111.00000000000000        1280657.3390466145     
   112.00000000000000        1242339.1158396294     
   113.00000000000000        1204937.8468734061     
   114.00000000000000        1168440.2919455522     
   115.00000000000000        1132832.9841557473     
   116.00000000000000        1098102.2595616407     
   117.00000000000000        1064234.2852509308     
   118.00000000000000        1031215.0858911690     
   119.00000000000000        999030.56881726428     
   120.00000000000000        967666.54771484435     
   121.00000000000000        937108.76495604671     
   122.00000000000000        907342.91264259722     
   123.00000000000000        878354.65240940743     
   124.00000000000000        850129.63404036639     
   125.00000000000000        822653.51294625434     
   126.00000000000000        795911.96655334800     
   127.00000000000000        769890.70964954526     
   128.00000000000000        744575.50873345009     
   129.00000000000000        719952.19541030796     
   130.00000000000000        696006.67887724692     
   131.00000000000000        672724.95753882488     
   132.00000000000000        650093.12979251612     
   133.00000000000000        628097.40402236173     
   134.00000000000000        606724.10783770273     
   135.00000000000000        585959.69659257028     
   136.00000000000000        565790.76122006506     
   137.00000000000000        546204.03541479271     
   138.00000000000000        527186.40219519858     
   139.00000000000000        508724.89987647376     
   140.00000000000000        490806.72748356359     
   141.00000000000000        473419.24963266571     
   142.00000000000000        456550.00090850663     
   143.00000000000000        440186.68976366922     
   144.00000000000000        424317.20196517120     
   145.00000000000000        408929.60361250670     
   146.00000000000000        394012.14375040104     
   147.00000000000000        379553.25659859006     
   148.00000000000000        365541.56341999816     
   149.00000000000000        351965.87404783908     
   150.00000000000000        338815.18809128017     
   151.00000000000000        326078.69583850325     
   152.00000000000000        313745.77887517092     
   153.00000000000000        301806.01043556049     
   154.00000000000000        290249.15550284297     
   155.00000000000000        279065.17067429493     
   156.00000000000000        268244.20380650501     
   157.00000000000000        257776.59345498073     
   158.00000000000000        247652.86812189021     
   159.00000000000000        237863.74532505986     
   160.00000000000000        228400.13050073615     
   161.00000000000000        219253.11575204306     
   162.00000000000000        210413.97845448472     
   163.00000000000000        201874.17972931653     
   164.00000000000000        193625.36279509004     
   165.00000000000000        185659.35120715387     
   166.00000000000000        177968.14699442923     
   167.00000000000000        170543.92870230711     
   168.00000000000000        163379.04935005741     
   169.00000000000000        156466.03431073099     
   170.00000000000000        149797.57912110927     
   171.00000000000000        143366.54722885613     
   172.00000000000000        137165.96768366665     
   173.00000000000000        131189.03277882026     
   174.00000000000000        125429.09564921175     
   175.00000000000000        119879.66783159238     
   176.00000000000000        114534.41679243240     
   177.00000000000000        109387.16342851454     
   178.00000000000000        104431.87954506300     
   179.00000000000000        99662.685315941388     
   180.00000000000000        95073.846730183053     
   181.00000000000000        90659.773028844342     
   182.00000000000000        86415.014135955833     
   183.00000000000000        82334.258087074966     
   184.00000000000000        78412.328458747492     
   185.00000000000000        74644.181801959450     
   186.00000000000000        71024.905082453202     
   187.00000000000000        67549.713130598160     
   188.00000000000000        64213.946103305898     
   189.00000000000000        61013.066960317425     
   190.00000000000000        57942.658957011416     
   191.00000000000000        54998.423155724930     
   192.00000000000000        52176.175957428924     
   193.00000000000000        49471.846655447458     
   194.00000000000000        46881.475012785362     
   195.00000000000000        44401.208864483640     
   196.00000000000000        42027.301746305777     
   197.00000000000000        39756.110550941870     
   198.00000000000000        37584.093212799999     
   199.00000000000000        35507.806422351343     
   200.00000000000000        33523.903370901433     
   201.00000000000000        31629.131526549707     
   202.00000000000000        29820.330442029517     
   203.00000000000000        28094.429595022495     
   204.00000000000000        26448.446261464633     
   205.00000000000000        24879.483422290046     
   206.00000000000000        23384.727703983914     
   207.00000000000000        21961.447353249318     
   208.00000000000000        20606.990246031473     
   209.00000000000000        19318.781931086032     
   210.00000000000000        18094.323708215292     
   211.00000000000000        16931.190741254090     
   212.00000000000000        15827.030205831474     
   213.00000000000000        14779.559471892040     
   214.00000000000000        13786.564320916643     
   215.00000000000000        12845.897197746090     
   216.00000000000000        11955.475496869672     
   217.00000000000000        11113.279883010704     
   218.00000000000000        10317.352645806703     
   219.00000000000000        9565.7960883534506     
   220.00000000000000        8856.7709493563707     
   221.00000000000000        8188.4948586038245     
   222.00000000000000        7559.2408254585989     
   223.00000000000000        6967.3357600392892     
   224.00000000000000        6411.1590267456231     
   225.00000000000000        5889.1410297640950     
   226.00000000000000        5399.7618301726525     
   227.00000000000000        4941.5497942527636     
   228.00000000000000        4513.0802725988142     
   229.00000000000000        4112.9743096075708     
   230.00000000000000        3739.8973829186434     
   231.00000000000000        3392.5581723673095     
   232.00000000000000        3069.7073580038141     
   233.00000000000000        2770.1364467268072     
   234.00000000000000        2492.6766270715502     
   235.00000000000000        2236.1976516904479     
   236.00000000000000        1999.6067470578203     
   237.00000000000000        1781.8475499293625     
   238.00000000000000        1581.8990700833831     
   239.00000000000000        1398.7746788699008     
   240.00000000000000        1231.5211230929190     
   241.00000000000000        1079.2175637511491     
   242.00000000000000        940.97463916248284     
   243.00000000000000        815.93355199927657     
   244.00000000000000        703.26517976255946     
   245.00000000000000        602.16920822551310     
   246.00000000000000        511.87328737943903     
   247.00000000000000        431.63220941799966     
   248.00000000000000        360.72710829896783     
   249.00000000000000        298.46468042676196     
   250.00000000000000        244.17642600278896     
   251.00000000000000        197.21791059508666     
   252.00000000000000        156.96804648354055     
   253.00000000000000        122.82839334161545     
   254.00000000000000        94.222477820970440     
   255.00000000000000        70.595131610512126     
   256.00000000000000        51.411847546889859     
   257.00000000000000        36.158153359475733     
   258.00000000000000        24.339002638336105     
   259.00000000000000        15.478182620003670     
   260.00000000000000        9.1177383917936758     
   261.00000000000000        4.8174131216721845     
   262.00000000000000        2.1541039270009099     
   263.00000000000000       0.72133300177767690     
   264.00000000000000       0.12873362848540315     
   265.00000000000000        1.5507070855659117E-003
   266.00000000000000       -0.0000000000000000     
   267.00000000000000       -0.0000000000000000     
   268.00000000000000       -0.0000000000000000     
   269.00000000000000       -0.0000000000000000     
   270.00000000000000       -0.0000000000000000     
   271.00000000000000       -0.0000000000000000     
   272.00000000000000       -0.0000000000000000     
   273.00000000000000       -0.0000000000000000     
   274.00000000000000       -0.0000000000000000     
   275.00000000000000       -0.0000000000000000     
   276.00000000000000       -0.0000000000000000     
   277.00000000000000       -0.0000000000000000     
   278.00000000000000       -0.0000000000000000     
   279.00000000000000       -0.0000000000000000     
   280.00000000000000       -0.0000000000000000     
   281.00000000000000       -0.0000000000000000     
   282.00000000000000       -0.0000000000000000     
   283.00000000000000       -0.0000000000000000     
   284.00000000000000       -0.0000000000000000     
   285.00000000000000       -0.0000000000000000     
   286.00000000000000       -0.0000000000000000     
   287.00000000000000       -0.0000000000000000     
   288.00000000000000       -0.0000000000000000     
   289.00000000000000       -0.0000000000000000     
   290.00000000000000       -0.0000000000000000     
   291.00000000000000       -0.0000000000000000     
   292.00000000000000       -0.0000000000000000     
   293.00000000000000       -0.0000000000000000     
   294.00000000000000       -0.0000000000000000     
   295.00000000000000       -0.0000000000000000     
   296.00000000000000       -0.0000000000000000     
   297.00000000000000       -0.0000000000000000     
   298.00000000000000       -0.0000000000000000     
   299.00000000000000       -0.0000000000000000     
   300.00000000000000       -0.0000000000000000     
   301.00000000000000       -0.0000000000000000     
   302.00000000000000       -0.0000000000000000     
   303.00000000000000       -0.0000000000000000     
   304.00000000000000       -0.0000000000000000     
   305.00000000000000       -0.0000000000000000     
   306.00000000000000       -0.0000000000000000     
   307.00000000000000       -0.0000000000000000     
   308.00000000000000       -0.0000000000000000     
   309.00000000000000       -0.0000000000000000     
   310.00000000000000       -0.0000000000000000     
   311.00000000000000       -0.0000000000000000     
   312.00000000000000       -0.0000000000000000     
   313.00000000000000       -0.0000000000000000     
   314.00000000000000       -0.0000000000000000     
   315.00000000000000       -0.0000000000000000     
   316.00000000000000       -0.0000000000000000     
   317.00000000000000       -0.0000000000000000     
   318.00000000000000       -0.0000000000000000     
   319.00000000000000       -0.0000000000000000     
   320.00000000000000       -0.0000000000000000     
   321.00000000000000       -0.0000000000000000     
   322.00000000000000       -0.0000000000000000     
   323.00000000000000       -0.0000000000000000     
   324.00000000000000       -0.0000000000000000     
   325.00000000000000       -0.0000000000000000     
   326.00000000000000       -0.0000000000000000     
   327.00000000000000       -0.0000000000000000     
   328.00000000000000       -0.0000000000000000     
   329.00000000000000       -0.0000000000000000     
   330.00000000000000       -0.0000000000000000     
   331.00000000000000       -0.0000000000000000     
   332.00000000000000       -0.0000000000000000     
   333.00000000000000       -0.0000000000000000     
   334.00000000000000       -0.0000000000000000     
   335.00000000000000       -0.0000000000000000     
   336.00000000000000       -0.0000000000000000     
   337.00000000000000       -0.0000000000000000     
   338.00000000000000       -0.0000000000000000     
   339.00000000000000       -0.0000000000000000     
   340.00000000000000       -0.0000000000000000     
   341.00000000000000       -0.0000000000000000     
   342.00000000000000       -0.0000000000000000     
   343.00000000000000       -0.0000000000000000     
   344.00000000000000       -0.0000000000000000     
   345.00000000000000       -0.0000000000000000     
   346.00000000000000       -0.0000000000000000     
   347.00000000000000       -0.0000000000000000     
   348.00000000000000       -0.0000000000000000     
   349.00000000000000       -0.0000000000000000     
   350.00000000000000       -0.0000000000000000     
   351.00000000000000       -0.0000000000000000     
   352.00000000000000       -0.0000000000000000     
   353.00000000000000       -0.0000000000000000     
   354.00000000000000       -0.0000000000000000     
   355.00000000000000       -0.0000000000000000     
   356.00000000000000       -0.0000000000000000     
   357.00000000000000       -0.0000000000000000     
   358.00000000000000       -0.0000000000000000     
   359.00000000000000       -0.0000000000000000     
   360.00000000000000       -0.0000000000000000     
   361.00000000000000       -0.0000000000000000     
   362.00000000000000       -0.0000000000000000     
   363.00000000000000       -0.0000000000000000     
   364.00000000000000       -0.0000000000000000     
   365.00000000000000       -0.0000000000000000     
   366.00000000000000       -0.0000000000000000     
   367.00000000000000       -0.0000000000000000     
   368.00000000000000       -0.0000000000000000     
   369.00000000000000       -0.0000000000000000     
   370.00000000000000       -0.0000000000000000     
   371.00000000000000       -0.0000000000000000     
   372.00000000000000       -0.0000000000000000     
   373.00000000000000       -0.0000000000000000     
   374.00000000000000       -0.0000000000000000     
   375.00000000000000       -0.0000000000000000     
   376.00000000000000       -0.0000000000000000     
