# Recoil energy (kev)        Event rate (events/gev)
   1.0000000000000000        3.4598468375616753E-002
   2.0000000000000000        6.7667754428287888E-002
   3.0000000000000000        9.9237516174771695E-002
   4.0000000000000000       0.12933835008021957     
   5.0000000000000000       0.15800164206146494     
   6.0000000000000000       0.18525943257148034     
   7.0000000000000000       0.21114431946182424     
   8.0000000000000000       0.23568942286796365     
   9.0000000000000000       0.25892808815158086     
   10.000000000000000       0.28089409572302554     
   11.000000000000000       0.30162126909877324     
   12.000000000000000       0.32114360039217538     
   13.000000000000000       0.33949511696687956     
   14.000000000000000       0.35670979259163027     
   15.000000000000000       0.37282149724150693     
   16.000000000000000       0.38786393019025439     
   17.000000000000000       0.40187075938148475     
   18.000000000000000       0.41487486464135614     
   19.000000000000000       0.42690954260476049     
   20.000000000000000       0.43800732004626786     
   21.000000000000000       0.44820024403706599     
   22.000000000000000       0.45752028588850208     
   23.000000000000000       0.46599902634850976     
   24.000000000000000       0.47366642863518532     
   25.000000000000000       0.48055379805231008     
   26.000000000000000       0.48669062289489112     
   27.000000000000000       0.49210624530180852     
   28.000000000000000       0.49682955995226530     
   29.000000000000000       0.50088824369632701     
   30.000000000000000       0.50431037243624877     
   31.000000000000000       0.50712279513880432     
   32.000000000000000       0.50935179324764335     
   33.000000000000000       0.51102314924776182     
   34.000000000000000       0.51216243847105747     
   35.000000000000000       0.51279370595388596     
   36.000000000000000       0.51294057640771951     
   37.000000000000000       0.51262697436190297     
   38.000000000000000       0.51187505810125589     
   39.000000000000000       0.51070755208955532     
   40.000000000000000       0.50914526161848184     
   41.000000000000000       0.50720890434227373     
   42.000000000000000       0.50491916006109239     
   43.000000000000000       0.50229507804800011     
   44.000000000000000       0.49935592980763777     
   45.000000000000000       0.49611999014995450     
   46.000000000000000       0.49260482856002313     
   47.000000000000000       0.48882744246046744     
   48.000000000000000       0.48480426508349145     
   49.000000000000000       0.48055117380562645     
   50.000000000000000       0.47608349889668727     
   51.000000000000000       0.47141603264738230     
   52.000000000000000       0.46656303882053007     
   53.000000000000000       0.46153826239732815     
   54.000000000000000       0.45635493957515078     
   55.000000000000000       0.45102580798009928     
   56.000000000000000       0.44556311706612600     
   57.000000000000000       0.43997863866250631     
   58.000000000000000       0.43428367764623782     
   59.000000000000000       0.42848908270511255     
   60.000000000000000       0.42260525717092395     
   61.000000000000000       0.41664216989612846     
   62.000000000000000       0.41060936615013527     
   63.000000000000000       0.40451597851683208     
   64.000000000000000       0.39837073777153531     
   65.000000000000000       0.39218198371895563     
   66.000000000000000       0.38595767598074343     
   67.000000000000000       0.37970540470593750     
   68.000000000000000       0.37343240120401616     
   69.000000000000000       0.36714554847638492     
   70.000000000000000       0.36085139163899904     
   71.000000000000000       0.35455614822614112     
   72.000000000000000       0.34826571836365117     
   73.000000000000000       0.34198569480202412     
   74.000000000000000       0.33572137280377090     
   75.000000000000000       0.32947775987681122     
   76.000000000000000       0.32325958534634319     
   77.000000000000000       0.31707130976021713     
   78.000000000000000       0.31091713412588273     
   79.000000000000000       0.30480100896790591     
   80.000000000000000       0.29872664321066184     
   81.000000000000000       0.29269751287563295     
   82.000000000000000       0.28671686959593146     
   83.000000000000000       0.28078774894456932     
   84.000000000000000       0.27491297857332014     
   85.000000000000000       0.26909518616319816     
   86.000000000000000       0.26333680718604630     
   87.000000000000000       0.25764009247345587     
   88.000000000000000       0.25200711559878924     
   89.000000000000000       0.24643978006832520     
   90.000000000000000       0.24093982632233471     
   91.000000000000000       0.23550883855035148     
   92.000000000000000       0.23014825131889222     
   93.000000000000000       0.22485935601378501     
   94.000000000000000       0.21964330709971727     
   95.000000000000000       0.21450112819858252     
   96.000000000000000       0.20943371798769947     
   97.000000000000000       0.20444185592110883     
   98.000000000000000       0.19952620777649974     
   99.000000000000000       0.19468733103072633     
   100.00000000000000       0.18992568006423091     
   101.00000000000000       0.18524161119968094     
   102.00000000000000       0.18063538757776434     
   103.00000000000000       0.17610718386986771     
   104.00000000000000       0.17165709083525377     
   105.00000000000000       0.16728511972201590     
   106.00000000000000       0.16299120651704010     
   107.00000000000000       0.15877521604690525     
   108.00000000000000       0.15463694593421368     
   109.00000000000000       0.15057613041189435     
   110.00000000000000       0.14659244399782165     
   111.00000000000000       0.14268550503484206     
   112.00000000000000       0.13885487909826219     
   113.00000000000000       0.13510008227403583     
   114.00000000000000       0.13142058431146295     
   115.00000000000000       0.12781581165323050     
   116.00000000000000       0.12428515034620616     
   117.00000000000000       0.12082794883601862     
   118.00000000000000       0.11744352064860095     
   119.00000000000000       0.11413114696224279     
   120.00000000000000       0.11089007907245782     
   121.00000000000000       0.10771954075380472     
   122.00000000000000       0.10461873052021817     
   123.00000000000000       0.10158682378860423     
   124.00000000000000        9.8622974947512598E-002
   125.00000000000000        9.5726319333331131E-002
   126.00000000000000        9.2895975118724022E-002
   127.00000000000000        9.0131045114345304E-002
   128.00000000000000        8.7430618486760550E-002
   129.00000000000000        8.4793772396612913E-002
   130.00000000000000        8.2219573558362097E-002
   131.00000000000000        7.9707079724332316E-002
   132.00000000000000        7.7255341096463065E-002
   133.00000000000000        7.4863401667560600E-002
   134.00000000000000        7.2530300494135572E-002
   135.00000000000000        7.0255072904408106E-002
   136.00000000000000        6.8036751642858453E-002
   137.00000000000000        6.5874367953457635E-002
   138.00000000000000        6.3766952604726007E-002
   139.00000000000000        6.1713536858061975E-002
   140.00000000000000        5.9713153381461631E-002
   141.00000000000000        5.7764837111076883E-002
   142.00000000000000        5.5867626062196599E-002
   143.00000000000000        5.4020562091940352E-002
   144.00000000000000        5.2222691615387846E-002
   145.00000000000000        5.0473066276813444E-002
   146.00000000000000        4.8770743578356562E-002
   147.00000000000000        4.7114787467065128E-002
   148.00000000000000        4.5504268882929966E-002
   149.00000000000000        4.3938266268667370E-002
   150.00000000000000        4.2415866043411299E-002
   151.00000000000000        4.0936163041800130E-002
   152.00000000000000        3.9498260919534789E-002
   153.00000000000000        3.8101272527405548E-002
   154.00000000000000        3.6744320254860866E-002
   155.00000000000000        3.5426536344469364E-002
   156.00000000000000        3.4147063178845631E-002
   157.00000000000000        3.2905053540834166E-002
   158.00000000000000        3.1699670848810015E-002
   159.00000000000000        3.0530089367692428E-002
   160.00000000000000        2.9395494397178489E-002
   161.00000000000000        2.8295082438134875E-002
   162.00000000000000        2.7228061338327961E-002
   163.00000000000000        2.6193650418360713E-002
   164.00000000000000        2.5191080578993018E-002
   165.00000000000000        2.4219594390737148E-002
   166.00000000000000        2.3278446166490913E-002
   167.00000000000000        2.2366902018334859E-002
   168.00000000000000        2.1484239899292951E-002
   169.00000000000000        2.0629749630685035E-002
   170.00000000000000        1.9802732916122053E-002
   171.00000000000000        1.9002503342722868E-002
   172.00000000000000        1.8228386370399113E-002
   173.00000000000000        1.7479719309815844E-002
   174.00000000000000        1.6755851289747364E-002
   175.00000000000000        1.6056143214504059E-002
   176.00000000000000        1.5379967711985534E-002
   177.00000000000000        1.4726709072994447E-002
   178.00000000000000        1.4095763182360235E-002
   179.00000000000000        1.3486537442467307E-002
   180.00000000000000        1.2898450689627559E-002
   181.00000000000000        1.2330933103867920E-002
   182.00000000000000        1.1783426112591696E-002
   183.00000000000000        1.1255382288525798E-002
   184.00000000000000        1.0746265242529510E-002
   185.00000000000000        1.0255549511429726E-002
   186.00000000000000        9.7827204415902418E-003
   187.00000000000000        9.3272740683195705E-003
   188.00000000000000        8.8887169916841077E-003
   189.00000000000000        8.4665662489406147E-003
   190.00000000000000        8.0603491839658942E-003
   191.00000000000000        7.6696033140189598E-003
   192.00000000000000        7.2938761940681040E-003
   193.00000000000000        6.9327252790563213E-003
   194.00000000000000        6.5857177842578770E-003
   195.00000000000000        6.2524305441151954E-003
   196.00000000000000        5.9324498696648204E-003
   197.00000000000000        5.6253714048809305E-003
   198.00000000000000        5.3307999821085071E-003
   199.00000000000000        5.0483494767749187E-003
   200.00000000000000        4.7776426616269151E-003
   201.00000000000000        4.5183110606311647E-003
   202.00000000000000        4.2699948027199600E-003
   203.00000000000000        4.0323424755492818E-003
   204.00000000000000        3.8050109794303573E-003
   205.00000000000000        3.5876653815531227E-003
   206.00000000000000        3.3799787706680316E-003
   207.00000000000000        3.1816321123196113E-003
   208.00000000000000        2.9923141047841512E-003
   209.00000000000000        2.8117210357860457E-003
   210.00000000000000        2.6395566401185297E-003
   211.00000000000000        2.4755319582719262E-003
   212.00000000000000        2.3193651961247214E-003
   213.00000000000000        2.1707815858212675E-003
   214.00000000000000        2.0295132478780724E-003
   215.00000000000000        1.8952990546125190E-003
   216.00000000000000        1.7678844949422002E-003
   217.00000000000000        1.6470215406306375E-003
   218.00000000000000        1.5324685140212868E-003
   219.00000000000000        1.4239899573070978E-003
   220.00000000000000        1.3213565033990387E-003
   221.00000000000000        1.2243447484114208E-003
   222.00000000000000        1.1327371258167034E-003
   223.00000000000000        1.0463217822907532E-003
   224.00000000000000        9.6489245528548137E-004
   225.00000000000000        8.8824835235240996E-004
   226.00000000000000        8.1619403223131550E-004
   227.00000000000000        7.4853928773243076E-004
   228.00000000000000        6.8509903042094289E-004
   229.00000000000000        6.2569317711715978E-004
   230.00000000000000        5.7014653822581179E-004
   231.00000000000000        5.1828870789471116E-004
   232.00000000000000        4.6995395601459117E-004
   233.00000000000000        4.2498112205728214E-004
   234.00000000000000        3.8321351075562305E-004
   235.00000000000000        3.4449878962109545E-004
   236.00000000000000        3.0868888829810738E-004
   237.00000000000000        2.7563989974463296E-004
   238.00000000000000        2.4521198324031464E-004
   239.00000000000000        2.1726926920341222E-004
   240.00000000000000        1.9167976581457107E-004
   241.00000000000000        1.6831526743167220E-004
   242.00000000000000        1.4705126478435694E-004
   243.00000000000000        1.2776685693394296E-004
   244.00000000000000        1.1034466498380744E-004
   245.00000000000000        9.4670747524920124E-005
   246.00000000000000        8.0634517798339268E-005
   247.00000000000000        6.8128662557965790E-005
   248.00000000000000        5.7049062614734682E-005
   249.00000000000000        4.7294715042502752E-005
   250.00000000000000        3.8767657026776670E-005
   251.00000000000000        3.1372891334865993E-005
   252.00000000000000        2.5018313386739238E-005
   253.00000000000000        1.9614639905507603E-005
   254.00000000000000        1.5075339125218984E-005
   255.00000000000000        1.1316562533856490E-005
   256.00000000000000        8.2570781290925196E-006
   257.00000000000000        5.8182051638410349E-006
   258.00000000000000        3.9237503585718516E-006
   259.00000000000000        2.4999455572183879E-006
   260.00000000000000        1.4753868031240230E-006
   261.00000000000000        7.8097481162462753E-007
   262.00000000000000        3.4985681560357596E-007
   263.00000000000000        1.1736976033511885E-007
   264.00000000000000        2.0984823966023443E-008
   265.00000000000000        2.5323991958553614E-010
   266.00000000000000       -0.0000000000000000     
   267.00000000000000       -0.0000000000000000     
   268.00000000000000       -0.0000000000000000     
   269.00000000000000       -0.0000000000000000     
   270.00000000000000       -0.0000000000000000     
   271.00000000000000       -0.0000000000000000     
   272.00000000000000       -0.0000000000000000     
   273.00000000000000       -0.0000000000000000     
   274.00000000000000       -0.0000000000000000     
   275.00000000000000       -0.0000000000000000     
   276.00000000000000       -0.0000000000000000     
   277.00000000000000       -0.0000000000000000     
   278.00000000000000       -0.0000000000000000     
   279.00000000000000       -0.0000000000000000     
   280.00000000000000       -0.0000000000000000     
   281.00000000000000       -0.0000000000000000     
   282.00000000000000       -0.0000000000000000     
   283.00000000000000       -0.0000000000000000     
   284.00000000000000       -0.0000000000000000     
   285.00000000000000       -0.0000000000000000     
   286.00000000000000       -0.0000000000000000     
   287.00000000000000       -0.0000000000000000     
   288.00000000000000       -0.0000000000000000     
   289.00000000000000       -0.0000000000000000     
   290.00000000000000       -0.0000000000000000     
   291.00000000000000       -0.0000000000000000     
   292.00000000000000       -0.0000000000000000     
   293.00000000000000       -0.0000000000000000     
   294.00000000000000       -0.0000000000000000     
   295.00000000000000       -0.0000000000000000     
   296.00000000000000       -0.0000000000000000     
   297.00000000000000       -0.0000000000000000     
   298.00000000000000       -0.0000000000000000     
   299.00000000000000       -0.0000000000000000     
   300.00000000000000       -0.0000000000000000     
   301.00000000000000       -0.0000000000000000     
   302.00000000000000       -0.0000000000000000     
   303.00000000000000       -0.0000000000000000     
   304.00000000000000       -0.0000000000000000     
   305.00000000000000       -0.0000000000000000     
   306.00000000000000       -0.0000000000000000     
   307.00000000000000       -0.0000000000000000     
   308.00000000000000       -0.0000000000000000     
   309.00000000000000       -0.0000000000000000     
   310.00000000000000       -0.0000000000000000     
   311.00000000000000       -0.0000000000000000     
   312.00000000000000       -0.0000000000000000     
   313.00000000000000       -0.0000000000000000     
   314.00000000000000       -0.0000000000000000     
   315.00000000000000       -0.0000000000000000     
   316.00000000000000       -0.0000000000000000     
   317.00000000000000       -0.0000000000000000     
   318.00000000000000       -0.0000000000000000     
   319.00000000000000       -0.0000000000000000     
   320.00000000000000       -0.0000000000000000     
   321.00000000000000       -0.0000000000000000     
   322.00000000000000       -0.0000000000000000     
   323.00000000000000       -0.0000000000000000     
   324.00000000000000       -0.0000000000000000     
   325.00000000000000       -0.0000000000000000     
   326.00000000000000       -0.0000000000000000     
   327.00000000000000       -0.0000000000000000     
   328.00000000000000       -0.0000000000000000     
   329.00000000000000       -0.0000000000000000     
   330.00000000000000       -0.0000000000000000     
   331.00000000000000       -0.0000000000000000     
   332.00000000000000       -0.0000000000000000     
   333.00000000000000       -0.0000000000000000     
   334.00000000000000       -0.0000000000000000     
   335.00000000000000       -0.0000000000000000     
   336.00000000000000       -0.0000000000000000     
   337.00000000000000       -0.0000000000000000     
   338.00000000000000       -0.0000000000000000     
   339.00000000000000       -0.0000000000000000     
   340.00000000000000       -0.0000000000000000     
   341.00000000000000       -0.0000000000000000     
   342.00000000000000       -0.0000000000000000     
   343.00000000000000       -0.0000000000000000     
   344.00000000000000       -0.0000000000000000     
   345.00000000000000       -0.0000000000000000     
   346.00000000000000       -0.0000000000000000     
   347.00000000000000       -0.0000000000000000     
   348.00000000000000       -0.0000000000000000     
   349.00000000000000       -0.0000000000000000     
   350.00000000000000       -0.0000000000000000     
   351.00000000000000       -0.0000000000000000     
   352.00000000000000       -0.0000000000000000     
   353.00000000000000       -0.0000000000000000     
   354.00000000000000       -0.0000000000000000     
   355.00000000000000       -0.0000000000000000     
   356.00000000000000       -0.0000000000000000     
   357.00000000000000       -0.0000000000000000     
   358.00000000000000       -0.0000000000000000     
   359.00000000000000       -0.0000000000000000     
   360.00000000000000       -0.0000000000000000     
   361.00000000000000       -0.0000000000000000     
   362.00000000000000       -0.0000000000000000     
   363.00000000000000       -0.0000000000000000     
   364.00000000000000       -0.0000000000000000     
   365.00000000000000       -0.0000000000000000     
   366.00000000000000       -0.0000000000000000     
   367.00000000000000       -0.0000000000000000     
   368.00000000000000       -0.0000000000000000     
   369.00000000000000       -0.0000000000000000     
   370.00000000000000       -0.0000000000000000     
   371.00000000000000       -0.0000000000000000     
   372.00000000000000       -0.0000000000000000     
   373.00000000000000       -0.0000000000000000     
   374.00000000000000       -0.0000000000000000     
   375.00000000000000       -0.0000000000000000     
   376.00000000000000       -0.0000000000000000     
