# Recoil energy (kev)        Event rate (events/gev)
   1.0000000000000000       0.46018286654203916     
   2.0000000000000000       0.91196345014757696     
   3.0000000000000000        1.3549805695839585     
   4.0000000000000000        1.7888963053994709     
   5.0000000000000000        2.2133959789590070     
   6.0000000000000000        2.6281884460195082     
   7.0000000000000000        3.0330061378526607     
   8.0000000000000000        3.4276064311517276     
   9.0000000000000000        3.8117683462018377     
   10.000000000000000        4.1852969067615833     
   11.000000000000000        4.5480182281881341     
   12.000000000000000        4.8997824985867382     
   13.000000000000000        5.2404619601579654     
   14.000000000000000        5.5699506915367172     
   15.000000000000000        5.8881640734778404     
   16.000000000000000        6.1950379064045995     
   17.000000000000000        6.4905305683639893     
   18.000000000000000        6.7746127479561409     
   19.000000000000000        7.0472832360946462     
   20.000000000000000        7.3085533639626510     
   21.000000000000000        7.5584502025046536     
   22.000000000000000        7.7970217232327901     
   23.000000000000000        8.0243324532681015     
   24.000000000000000        8.2404562586993642     
   25.000000000000000        8.4454667285277996     
   26.000000000000000        8.6394917654633261     
   27.000000000000000        8.8226382716509182     
   28.000000000000000        8.9950357212971443     
   29.000000000000000        9.1568219355868194     
   30.000000000000000        9.3081386163435926     
   31.000000000000000        9.4491557981166565     
   32.000000000000000        9.5800225272632407     
   33.000000000000000        9.7009534014912102     
   34.000000000000000        9.8120982106486316     
   35.000000000000000        9.9136539463613627     
   36.000000000000000        10.005814241374416     
   37.000000000000000        10.088782514013765     
   38.000000000000000        10.162770781968765     
   39.000000000000000        10.227983234442229     
   40.000000000000000        10.284645985121250     
   41.000000000000000        10.332960968254394     
   42.000000000000000        10.373159955233257     
   43.000000000000000        10.405459503922172     
   44.000000000000000        10.430087814604493     
   45.000000000000000        10.447269847782696     
   46.000000000000000        10.457229986548384     
   47.000000000000000        10.460193075009004     
   48.000000000000000        10.456384036256523     
   49.000000000000000        10.446027510204194     
   50.000000000000000        10.429347510993834     
   51.000000000000000        10.406567103634375     
   52.000000000000000        10.377908099495141     
   53.000000000000000        10.343590770246431     
   54.000000000000000        10.303833579811620     
   55.000000000000000        10.258852933872808     
   56.000000000000000        10.208862946451815     
   57.000000000000000        10.154075223073095     
   58.000000000000000        10.094698660001820     
   59.000000000000000        10.030939259041016     
   60.000000000000000        9.9629999573639978     
   61.000000000000000        9.8910804718539005     
   62.000000000000000        9.8153771574193254     
   63.000000000000000        9.7360828787544271     
   64.000000000000000        9.6533868950130337     
   65.000000000000000        9.5674747568692542     
   66.000000000000000        9.4785282154408925     
   67.000000000000000        9.3867251425579017     
   68.000000000000000        9.2922394618646269     
   69.000000000000000        9.1952410902520683     
   70.000000000000000        9.0958958891254245     
   71.000000000000000        8.9943656250211728     
   72.000000000000000        8.8908079390982095     
   73.000000000000000        8.7853763250382553     
   74.000000000000000        8.6782201149017268     
   75.000000000000000        8.5694844724971038     
   76.000000000000000        8.4593103938336522     
   77.000000000000000        8.3478347142393741     
   78.000000000000000        8.2351901217389933     
   79.000000000000000        8.1215051762988200     
   80.000000000000000        8.0069043345584276     
   81.000000000000000        7.8915079796816769     
   82.000000000000000        7.7754324559723180     
   83.000000000000000        7.6587901079123766     
   84.000000000000000        7.5416893232940083     
   85.000000000000000        7.4242345801281955     
   86.000000000000000        7.3065264970260131     
   87.000000000000000        7.1886618867607606     
   88.000000000000000        7.0707338127311266     
   89.000000000000000        6.9528316480577281     
   90.000000000000000        6.8350411370568462     
   91.000000000000000        6.7174444588471394     
   92.000000000000000        6.6001202928559897     
   93.000000000000000        6.4831438860032007     
   94.000000000000000        6.3665871213509933     
   95.000000000000000        6.2505185880191263     
   96.000000000000000        6.1350036521745883     
   97.000000000000000        6.0201045289151986     
   98.000000000000000        5.9058803548759577     
   99.000000000000000        5.7923872613966569     
   100.00000000000000        5.6796784480979845     
   101.00000000000000        5.5678042567223969     
   102.00000000000000        5.4568122451045697     
   103.00000000000000        5.3467472611441025     
   104.00000000000000        5.2376515166616171     
   105.00000000000000        5.1295646610265058     
   106.00000000000000        5.0225238544522748     
   107.00000000000000        4.9165638408623895     
   108.00000000000000        4.8117170202362169     
   109.00000000000000        4.7080135203515399     
   110.00000000000000        4.6054812678458648     
   111.00000000000000        4.5041460585252420     
   112.00000000000000        4.4040316268546382     
   113.00000000000000        4.3051597145697951     
   114.00000000000000        4.2075501383553542     
   115.00000000000000        4.1112208565393615     
   116.00000000000000        4.0161880347587795     
   117.00000000000000        3.9224661105554333     
   118.00000000000000        3.8300678568658544     
   119.00000000000000        3.7390044443728923     
   120.00000000000000        3.6492855026905775     
   121.00000000000000        3.5609191803576765     
   122.00000000000000        3.4739122036186743     
   123.00000000000000        3.3882699339743314     
   124.00000000000000        3.3039964244871998     
   125.00000000000000        3.2210944748300494     
   126.00000000000000        3.1395656850685416     
   127.00000000000000        3.0594105081714873     
   128.00000000000000        2.9806283012449262     
   129.00000000000000        2.9032173754883548     
   130.00000000000000        2.8271750448736697     
   131.00000000000000        2.7524976735493825     
   132.00000000000000        2.6791807219745727     
   133.00000000000000        2.6072187917887635     
   134.00000000000000        2.5366056694256049     
   135.00000000000000        2.4673343684796696     
   136.00000000000000        2.3993971708371236     
   137.00000000000000        2.3327856665823781     
   138.00000000000000        2.2674907926938679     
   139.00000000000000        2.2035028705432880     
   140.00000000000000        2.1408116422136723     
   141.00000000000000        2.0794063056524918     
   142.00000000000000        2.0192755486767267     
   143.00000000000000        1.9604075818478310     
   144.00000000000000        1.9027901702349392     
   145.00000000000000        1.8464106640853188     
   146.00000000000000        1.7912560284216601     
   147.00000000000000        1.7373128715861761     
   148.00000000000000        1.6845674727518776     
   149.00000000000000        1.6330058084217598     
   150.00000000000000        1.5826135779368693     
   151.00000000000000        1.5333762280144889     
   152.00000000000000        1.4852789763378031     
   153.00000000000000        1.4383068342186129     
   154.00000000000000        1.3924446283546201     
   155.00000000000000        1.3476770217030274     
   156.00000000000000        1.3039885334920427     
   157.00000000000000        1.2613635583919707     
   158.00000000000000        1.2197863848674178     
   159.00000000000000        1.1792412127321126     
   160.00000000000000        1.1397121699276929     
   161.00000000000000        1.1011833285477057     
   162.00000000000000        1.0636387201278110     
   163.00000000000000        1.0270623502230589     
   164.00000000000000       0.99143821229290419     
   165.00000000000000       0.95675030091431235     
   166.00000000000000       0.92298262434314915     
   167.00000000000000       0.89011921644373049     
   168.00000000000000       0.85814414800611316     
   169.00000000000000       0.82704153747047604     
   170.00000000000000       0.79679556107758842     
   171.00000000000000       0.76739046246403553     
   172.00000000000000       0.73881056172061177     
   173.00000000000000       0.71104026393188580     
   174.00000000000000       0.68406406721464619     
   175.00000000000000       0.65786657027259521     
   176.00000000000000       0.63243247948426717     
   177.00000000000000       0.60774661554085863     
   178.00000000000000       0.58379391965022376     
   179.00000000000000       0.56055945932299689     
   180.00000000000000       0.53802843375642762     
   181.00000000000000       0.51618617883107587     
   182.00000000000000       0.49501817173532142     
   183.00000000000000       0.47451003523207241     
   184.00000000000000       0.45464754158185894     
   185.00000000000000       0.43541661613607763     
   186.00000000000000       0.41680334061376095     
   187.00000000000000       0.39879395607497425     
   188.00000000000000       0.38137486560349348     
   189.00000000000000       0.36453263671115621     
   190.00000000000000       0.34825400347587210     
   191.00000000000000       0.33252586842495069     
   192.00000000000000       0.31733530417509875     
   193.00000000000000       0.30266955484003433     
   194.00000000000000       0.28851603721643432     
   195.00000000000000       0.27486234175851298     
   196.00000000000000       0.26169623335125802     
   197.00000000000000       0.24900565189204457     
   198.00000000000000       0.23677871269000339     
   199.00000000000000       0.22500370669223838     
   200.00000000000000       0.21366910054571275     
   201.00000000000000       0.20276353650325335     
   202.00000000000000       0.19227583218194272     
   203.00000000000000       0.18219498018180599     
   204.00000000000000       0.17251014757244995     
   205.00000000000000       0.16321067525505920     
   206.00000000000000       0.15428607720687232     
   207.00000000000000       0.14572603961500591     
   208.00000000000000       0.13752041990624872     
   209.00000000000000       0.12965924567921530     
   210.00000000000000       0.12213271354497143     
   211.00000000000000       0.11493118788205854     
   212.00000000000000       0.10804519951158484     
   213.00000000000000       0.10146544429784089     
   214.00000000000000        9.5182781679675546E-002
   215.00000000000000        8.9188233137678569E-002
   216.00000000000000        8.3472980601981106E-002
   217.00000000000000        7.8028364805315886E-002
   218.00000000000000        7.2845883585768739E-002
   219.00000000000000        6.7917190143472930E-002
   220.00000000000000        6.3234091255322769E-002
   221.00000000000000        5.8788545451586356E-002
   222.00000000000000        5.4572661158152284E-002
   223.00000000000000        5.0578694807960699E-002
   224.00000000000000        4.6799048925016774E-002
   225.00000000000000        4.3226270184231530E-002
   226.00000000000000        3.9853047450169363E-002
   227.00000000000000        3.6672209797666278E-002
   228.00000000000000        3.3676724517104670E-002
   229.00000000000000        3.0859695107021828E-002
   230.00000000000000        2.8214359256589782E-002
   231.00000000000000        2.5734086820372981E-002
   232.00000000000000        2.3412377787649676E-002
   233.00000000000000        2.1242860248470212E-002
   234.00000000000000        1.9219288358499374E-002
   235.00000000000000        1.7335540304593305E-002
   236.00000000000000        1.5585616272942296E-002
   237.00000000000000        1.3963636421519682E-002
   238.00000000000000        1.2463838858470386E-002
   239.00000000000000        1.1080577627980728E-002
   240.00000000000000        9.8083207050804963E-003
   241.00000000000000        8.6416480007405413E-003
   242.00000000000000        7.5752493785412487E-003
   243.00000000000000        6.6039226841113777E-003
   244.00000000000000        5.7225717884549212E-003
   245.00000000000000        4.9262046462092129E-003
   246.00000000000000        4.2099313698090012E-003
   247.00000000000000        3.5689623204584638E-003
   248.00000000000000        2.9986062167482578E-003
   249.00000000000000        2.4942682616935687E-003
   250.00000000000000        2.0514482889063337E-003
   251.00000000000000        1.6657389285573876E-003
   252.00000000000000        1.3328237937301913E-003
   253.00000000000000        1.0484756877126562E-003
   254.00000000000000        8.0855483272552890E-004
   255.00000000000000        6.0900712053610503E-004
   256.00000000000000        4.4586238535922158E-004
   257.00000000000000        3.1523269940635134E-004
   258.00000000000000        2.1331069139848266E-004
   259.00000000000000        1.3636788832123667E-004
   260.00000000000000        8.0753080661341597E-005
   261.00000000000000        4.2890711328023567E-005
   262.00000000000000        1.9279288428873002E-005
   263.00000000000000        6.4898220366451079E-006
   264.00000000000000        1.1642850532719669E-006
   265.00000000000000        1.4098247768799988E-008
   266.00000000000000       -0.0000000000000000     
   267.00000000000000       -0.0000000000000000     
   268.00000000000000       -0.0000000000000000     
   269.00000000000000       -0.0000000000000000     
   270.00000000000000       -0.0000000000000000     
   271.00000000000000       -0.0000000000000000     
   272.00000000000000       -0.0000000000000000     
   273.00000000000000       -0.0000000000000000     
   274.00000000000000       -0.0000000000000000     
   275.00000000000000       -0.0000000000000000     
   276.00000000000000       -0.0000000000000000     
   277.00000000000000       -0.0000000000000000     
   278.00000000000000       -0.0000000000000000     
   279.00000000000000       -0.0000000000000000     
   280.00000000000000       -0.0000000000000000     
   281.00000000000000       -0.0000000000000000     
   282.00000000000000       -0.0000000000000000     
   283.00000000000000       -0.0000000000000000     
   284.00000000000000       -0.0000000000000000     
   285.00000000000000       -0.0000000000000000     
   286.00000000000000       -0.0000000000000000     
   287.00000000000000       -0.0000000000000000     
   288.00000000000000       -0.0000000000000000     
   289.00000000000000       -0.0000000000000000     
   290.00000000000000       -0.0000000000000000     
   291.00000000000000       -0.0000000000000000     
   292.00000000000000       -0.0000000000000000     
   293.00000000000000       -0.0000000000000000     
   294.00000000000000       -0.0000000000000000     
   295.00000000000000       -0.0000000000000000     
   296.00000000000000       -0.0000000000000000     
   297.00000000000000       -0.0000000000000000     
   298.00000000000000       -0.0000000000000000     
   299.00000000000000       -0.0000000000000000     
   300.00000000000000       -0.0000000000000000     
   301.00000000000000       -0.0000000000000000     
   302.00000000000000       -0.0000000000000000     
   303.00000000000000       -0.0000000000000000     
   304.00000000000000       -0.0000000000000000     
   305.00000000000000       -0.0000000000000000     
   306.00000000000000       -0.0000000000000000     
   307.00000000000000       -0.0000000000000000     
   308.00000000000000       -0.0000000000000000     
   309.00000000000000       -0.0000000000000000     
   310.00000000000000       -0.0000000000000000     
   311.00000000000000       -0.0000000000000000     
   312.00000000000000       -0.0000000000000000     
   313.00000000000000       -0.0000000000000000     
   314.00000000000000       -0.0000000000000000     
   315.00000000000000       -0.0000000000000000     
   316.00000000000000       -0.0000000000000000     
   317.00000000000000       -0.0000000000000000     
   318.00000000000000       -0.0000000000000000     
   319.00000000000000       -0.0000000000000000     
   320.00000000000000       -0.0000000000000000     
   321.00000000000000       -0.0000000000000000     
   322.00000000000000       -0.0000000000000000     
   323.00000000000000       -0.0000000000000000     
   324.00000000000000       -0.0000000000000000     
   325.00000000000000       -0.0000000000000000     
   326.00000000000000       -0.0000000000000000     
   327.00000000000000       -0.0000000000000000     
   328.00000000000000       -0.0000000000000000     
   329.00000000000000       -0.0000000000000000     
   330.00000000000000       -0.0000000000000000     
   331.00000000000000       -0.0000000000000000     
   332.00000000000000       -0.0000000000000000     
   333.00000000000000       -0.0000000000000000     
   334.00000000000000       -0.0000000000000000     
   335.00000000000000       -0.0000000000000000     
   336.00000000000000       -0.0000000000000000     
   337.00000000000000       -0.0000000000000000     
   338.00000000000000       -0.0000000000000000     
   339.00000000000000       -0.0000000000000000     
   340.00000000000000       -0.0000000000000000     
   341.00000000000000       -0.0000000000000000     
   342.00000000000000       -0.0000000000000000     
   343.00000000000000       -0.0000000000000000     
   344.00000000000000       -0.0000000000000000     
   345.00000000000000       -0.0000000000000000     
   346.00000000000000       -0.0000000000000000     
   347.00000000000000       -0.0000000000000000     
   348.00000000000000       -0.0000000000000000     
   349.00000000000000       -0.0000000000000000     
   350.00000000000000       -0.0000000000000000     
   351.00000000000000       -0.0000000000000000     
   352.00000000000000       -0.0000000000000000     
   353.00000000000000       -0.0000000000000000     
   354.00000000000000       -0.0000000000000000     
   355.00000000000000       -0.0000000000000000     
   356.00000000000000       -0.0000000000000000     
   357.00000000000000       -0.0000000000000000     
   358.00000000000000       -0.0000000000000000     
   359.00000000000000       -0.0000000000000000     
   360.00000000000000       -0.0000000000000000     
   361.00000000000000       -0.0000000000000000     
   362.00000000000000       -0.0000000000000000     
   363.00000000000000       -0.0000000000000000     
   364.00000000000000       -0.0000000000000000     
   365.00000000000000       -0.0000000000000000     
   366.00000000000000       -0.0000000000000000     
   367.00000000000000       -0.0000000000000000     
   368.00000000000000       -0.0000000000000000     
   369.00000000000000       -0.0000000000000000     
   370.00000000000000       -0.0000000000000000     
   371.00000000000000       -0.0000000000000000     
   372.00000000000000       -0.0000000000000000     
   373.00000000000000       -0.0000000000000000     
   374.00000000000000       -0.0000000000000000     
   375.00000000000000       -0.0000000000000000     
   376.00000000000000       -0.0000000000000000     
