# Recoil energy (kev)        Event rate (events/gev)
   1.0000000000000000        417.49631574202647     
   2.0000000000000000        406.05669202067952     
   3.0000000000000000        394.85171536750636     
   4.0000000000000000        383.88095454191961     
   5.0000000000000000        373.14361208049593     
   6.0000000000000000        362.63856175063057     
   7.0000000000000000        352.36442443957117     
   8.0000000000000000        342.31968182049934     
   9.0000000000000000        332.50237929511957     
   10.000000000000000        322.91060078803872     
   11.000000000000000        313.54205179530607     
   12.000000000000000        304.39435314516976     
   13.000000000000000        295.46497013837211     
   14.000000000000000        286.75121104439336     
   15.000000000000000        278.25025690588876     
   16.000000000000000        269.95916938345010     
   17.000000000000000        261.87503137295391     
   18.000000000000000        253.99448914829756     
   19.000000000000000        246.31458448724817     
   20.000000000000000        238.83201204126212     
   21.000000000000000        231.54337099680296     
   22.000000000000000        224.44539909970285     
   23.000000000000000        217.53480396266815     
   24.000000000000000        210.80773479265727     
   25.000000000000000        204.26117640200835     
   26.000000000000000        197.89149585084840     
   27.000000000000000        191.69523174828333     
   28.000000000000000        185.66895766598745     
   29.000000000000000        179.80900863441437     
   30.000000000000000        174.11209452472838     
   31.000000000000000        168.57469996780230     
   32.000000000000000        163.19334493576150     
   33.000000000000000        157.96460880898726     
   34.000000000000000        152.88521605381342     
   35.000000000000000        147.95163857097549     
   36.000000000000000        143.16045449115603     
   37.000000000000000        138.50853411431294     
   38.000000000000000        133.99246136000880     
   39.000000000000000        129.60917625547205     
   40.000000000000000        125.35531736435749     
   41.000000000000000        121.22771004345411     
   42.000000000000000        117.22335830752391     
   43.000000000000000        113.33906684295458     
   44.000000000000000        109.57188094018362     
   45.000000000000000        105.91880002574618     
   46.000000000000000        102.37684993756115     
   47.000000000000000        98.943112095587622     
   48.000000000000000        95.614723422434835     
   49.000000000000000        92.388876236896820     
   50.000000000000000        89.262818116190360     
   51.000000000000000        86.233851721777185     
   52.000000000000000        83.299334587374261     
   53.000000000000000        80.456678867186639     
   54.000000000000000        77.703351044047267     
   55.000000000000000        75.036871597555447     
   56.000000000000000        72.454814632842044     
   57.000000000000000        69.954807470795828     
   58.000000000000000        67.534530201623795     
   59.000000000000000        65.191715202846865     
   60.000000000000000        62.924146624001196     
   61.000000000000000        60.729659839599087     
   62.000000000000000        58.606140872732290     
   63.000000000000000        56.551525791029945     
   64.000000000000000        54.563800077340787     
   65.000000000000000        52.640997977090613     
   66.000000000000000        50.781201824634273     
   67.000000000000000        48.982541350102721     
   68.000000000000000        47.243192969312851     
   69.000000000000000        45.561379058407901     
   70.000000000000000        43.935367214940655     
   71.000000000000000        42.363469507619669     
   72.000000000000000        40.844041715922017     
   73.000000000000000        39.375482561642414     
   74.000000000000000        37.956232933689414     
   75.000000000000000        36.584775107806585     
   76.000000000000000        35.259631962303523     
   77.000000000000000        33.979366191623541     
   78.000000000000000        32.742579518465291     
   79.000000000000000        31.547911906067863     
   80.000000000000000        30.394040771502574     
   81.000000000000000        29.279680201095626     
   82.000000000000000        28.203580168881611     
   83.000000000000000        27.164525759231932     
   84.000000000000000        26.161336394087517     
   85.000000000000000        25.192865065797712     
   86.000000000000000        24.257997576446449     
   87.000000000000000        23.355651783865845     
   88.000000000000000        22.484776855393594     
   89.000000000000000        21.644352529640312     
   90.000000000000000        20.833388386885460     
   91.000000000000000        20.050923128476075     
   92.000000000000000        19.296023865707877     
   93.000000000000000        18.567785418548969     
   94.000000000000000        17.865329624456272     
   95.000000000000000        17.187804657675581     
   96.000000000000000        16.534384359181317     
   97.000000000000000        15.904267577521004     
   98.000000000000000        15.296677520781582     
   99.000000000000000        14.710861119779981     
   100.00000000000000        14.146088402612902     
   101.00000000000000        13.601651880678366     
   102.00000000000000        13.076865946327572     
   103.00000000000000        12.571066282000343     
   104.00000000000000        12.083609281123769     
   105.00000000000000        11.613871480602988     
   106.00000000000000        11.161249004974614     
   107.00000000000000        10.725157022228849     
   108.00000000000000        10.305029211165133     
   109.00000000000000        9.9003172403766051     
   110.00000000000000        9.5104902586338440     
   111.00000000000000        9.1350343967137952     
   112.00000000000000        8.7734522805322914     
   113.00000000000000        8.4252625554880414     
   114.00000000000000        8.0899994218953637     
   115.00000000000000        7.7672121814297634     
   116.00000000000000        7.4564647943962106     
   117.00000000000000        7.1573354477532218     
   118.00000000000000        6.8694161337025355     
   119.00000000000000        6.5923122387073203     
   120.00000000000000        6.3256421428299028     
   121.00000000000000        6.0690368291779748     
   122.00000000000000        5.8221395033307859     
   123.00000000000000        5.5846052225612874     
   124.00000000000000        5.3561005347476183     
   125.00000000000000        5.1363031266886230     
   126.00000000000000        4.9249014817999557     
   127.00000000000000        4.7215945469107865     
   128.00000000000000        4.5260914080128734     
   129.00000000000000        4.3381109748129836     
   130.00000000000000        4.1573816739133322     
   131.00000000000000        3.9836411503994271     
   132.00000000000000        3.8166359777261452     
   133.00000000000000        3.6561213756693203     
   134.00000000000000        3.5018609362125974     
   135.00000000000000        3.3536263571767515     
   136.00000000000000        3.2111971834208943     
   137.00000000000000        3.0743605554406610     
   138.00000000000000        2.9429109652075476     
   139.00000000000000        2.8166500190806909     
   140.00000000000000        2.6953862076079576     
   141.00000000000000        2.5789346820682075     
   142.00000000000000        2.4671170375847478     
   143.00000000000000        2.3597611026644447     
   144.00000000000000        2.2567007349713122     
   145.00000000000000        2.1577756232229186     
   146.00000000000000        2.0628310950187383     
   147.00000000000000        1.9717179304676726     
   148.00000000000000        1.8842921814631746     
   149.00000000000000        1.8004149964548677     
   150.00000000000000        1.7199524505791344     
   151.00000000000000        1.6427753810057113     
   152.00000000000000        1.5687592273574458     
   153.00000000000000        1.4977838770651002     
   154.00000000000000        1.4297335155421504     
   155.00000000000000        1.3644964810182023     
   156.00000000000000        1.3019651239331611     
   157.00000000000000        1.2420356707417002     
   158.00000000000000        1.1846080920230970     
   159.00000000000000        1.1295859747647403     
   160.00000000000000        1.0768763987065177     
   161.00000000000000        1.0263898166293166     
   162.00000000000000       0.97803993847628079     
   163.00000000000000       0.93174361919179105     
   164.00000000000000       0.88742075017950894     
   165.00000000000000       0.84499415426686431     
   166.00000000000000       0.80438948407378363     
   167.00000000000000       0.76553512369100407     
   168.00000000000000       0.72836209356466286     
   169.00000000000000       0.69280395849446630     
   170.00000000000000       0.65879673865303590     
   171.00000000000000       0.62627882353200570     
   172.00000000000000       0.59519088873274273     
   173.00000000000000       0.56547581551057480     
   174.00000000000000       0.53707861298919046     
   175.00000000000000       0.50994634296822250     
   176.00000000000000       0.48402804723796511     
   177.00000000000000       0.45927467732767713     
   178.00000000000000       0.43563902661274595     
   179.00000000000000       0.41307566470615031     
   180.00000000000000       0.39154087405997523     
   181.00000000000000       0.37099258871528568     
   182.00000000000000       0.35139033512529183     
   183.00000000000000       0.33269517499013357     
   184.00000000000000       0.31486965003924461     
   185.00000000000000       0.29787772869921930     
   186.00000000000000       0.28168475458494147     
   187.00000000000000       0.26625739676062393     
   188.00000000000000       0.25156360170795333     
   189.00000000000000       0.23757254695086732     
   190.00000000000000       0.22425459628099823     
   191.00000000000000       0.21158125653324117     
   192.00000000000000       0.19952513585901915     
   193.00000000000000       0.18805990345160103     
   194.00000000000000       0.17716025067300462     
   195.00000000000000       0.16680185353716531     
   196.00000000000000       0.15696133650628247     
   197.00000000000000       0.14761623755485465     
   198.00000000000000       0.13874497446100470     
   199.00000000000000       0.13032681228306012     
   200.00000000000000       0.12234183198317532     
   201.00000000000000       0.11477090015910103     
   202.00000000000000       0.10759563984668784     
   203.00000000000000       0.10079840235761216     
   204.00000000000000        9.4362240117771667E-002
   205.00000000000000        8.8270880471928437E-002
   206.00000000000000        8.2508700422266643E-002
   207.00000000000000        7.7060702269323697E-002
   208.00000000000000        7.1912490124528147E-002
   209.00000000000000        6.7050247264460933E-002
   210.00000000000000        6.2460714298433979E-002
   211.00000000000000        5.8131168121331379E-002
   212.00000000000000        5.4049401625086931E-002
   213.00000000000000        5.0203704142150460E-002
   214.00000000000000        4.6582842596293736E-002
   215.00000000000000        4.3176043336196769E-002
   216.00000000000000        3.9972974627943900E-002
   217.00000000000000        3.6963729783929214E-002
   218.00000000000000        3.4138810905823498E-002
   219.00000000000000        3.1489113220289563E-002
   220.00000000000000        2.9005909986880570E-002
   221.00000000000000        2.6680837957979684E-002
   222.00000000000000        2.4505883371512049E-002
   223.00000000000000        2.2473368457684009E-002
   224.00000000000000        2.0575938441785346E-002
   225.00000000000000        1.8806549025481571E-002
   226.00000000000000        1.7158454329761489E-002
   227.00000000000000        1.5625195283168955E-002
   228.00000000000000        1.4200588439595771E-002
   229.00000000000000        1.2878715210359959E-002
   230.00000000000000        1.1653911495932479E-002
   231.00000000000000        1.0520757702860442E-002
   232.00000000000000        9.4740691324212128E-003
   233.00000000000000        8.5088867275067651E-003
   234.00000000000000        7.6204681650428093E-003
   235.00000000000000        6.8042792814706661E-003
   236.00000000000000        6.0559858194050896E-003
   237.00000000000000        5.3714454837932909E-003
   238.00000000000000        4.7467002966017384E-003
   239.00000000000000        4.1779692390455023E-003
   240.00000000000000        3.6616411711354832E-003
   241.00000000000000        3.1942680183969937E-003
   242.00000000000000        2.7725582161266704E-003
   243.00000000000000        2.3933704017721274E-003
   244.00000000000000        2.0537073464769145E-003
   245.00000000000000        1.7507101170173894E-003
   246.00000000000000        1.4816524597463267E-003
   247.00000000000000        1.2439353984270288E-003
   248.00000000000000        1.0350820381242545E-003
   249.00000000000000        8.5273256759678265E-004
   250.00000000000000        6.9463945290131719E-004
   251.00000000000000        5.5866281518290233E-004
   252.00000000000000        4.4276598585687240E-004
   253.00000000000000        3.4501123265207024E-004
   254.00000000000000        2.6355565019880089E-004
   255.00000000000000        1.9664720907311965E-004
   256.00000000000000        1.4262095743495311E-004
   257.00000000000000        9.9895369593342671E-005
   258.00000000000000        6.6968836046301701E-005
   259.00000000000000        4.2416289730101024E-005
   260.00000000000000        2.4885963405441371E-005
   261.00000000000000        1.3096273289458930E-005
   262.00000000000000        5.8328242180965464E-006
   263.00000000000000        1.9455317931132050E-006
   264.00000000000000        3.4585713305150260E-007
   265.00000000000000        4.1500048440487819E-009
   266.00000000000000       -0.0000000000000000     
   267.00000000000000       -0.0000000000000000     
   268.00000000000000       -0.0000000000000000     
   269.00000000000000       -0.0000000000000000     
   270.00000000000000       -0.0000000000000000     
   271.00000000000000       -0.0000000000000000     
   272.00000000000000       -0.0000000000000000     
   273.00000000000000       -0.0000000000000000     
   274.00000000000000       -0.0000000000000000     
   275.00000000000000       -0.0000000000000000     
   276.00000000000000       -0.0000000000000000     
   277.00000000000000       -0.0000000000000000     
   278.00000000000000       -0.0000000000000000     
   279.00000000000000       -0.0000000000000000     
   280.00000000000000       -0.0000000000000000     
   281.00000000000000       -0.0000000000000000     
   282.00000000000000       -0.0000000000000000     
   283.00000000000000       -0.0000000000000000     
   284.00000000000000       -0.0000000000000000     
   285.00000000000000       -0.0000000000000000     
   286.00000000000000       -0.0000000000000000     
   287.00000000000000       -0.0000000000000000     
   288.00000000000000       -0.0000000000000000     
   289.00000000000000       -0.0000000000000000     
   290.00000000000000       -0.0000000000000000     
   291.00000000000000       -0.0000000000000000     
   292.00000000000000       -0.0000000000000000     
   293.00000000000000       -0.0000000000000000     
   294.00000000000000       -0.0000000000000000     
   295.00000000000000       -0.0000000000000000     
   296.00000000000000       -0.0000000000000000     
   297.00000000000000       -0.0000000000000000     
   298.00000000000000       -0.0000000000000000     
   299.00000000000000       -0.0000000000000000     
   300.00000000000000       -0.0000000000000000     
   301.00000000000000       -0.0000000000000000     
   302.00000000000000       -0.0000000000000000     
   303.00000000000000       -0.0000000000000000     
   304.00000000000000       -0.0000000000000000     
   305.00000000000000       -0.0000000000000000     
   306.00000000000000       -0.0000000000000000     
   307.00000000000000       -0.0000000000000000     
   308.00000000000000       -0.0000000000000000     
   309.00000000000000       -0.0000000000000000     
   310.00000000000000       -0.0000000000000000     
   311.00000000000000       -0.0000000000000000     
   312.00000000000000       -0.0000000000000000     
   313.00000000000000       -0.0000000000000000     
   314.00000000000000       -0.0000000000000000     
   315.00000000000000       -0.0000000000000000     
   316.00000000000000       -0.0000000000000000     
   317.00000000000000       -0.0000000000000000     
   318.00000000000000       -0.0000000000000000     
   319.00000000000000       -0.0000000000000000     
   320.00000000000000       -0.0000000000000000     
   321.00000000000000       -0.0000000000000000     
   322.00000000000000       -0.0000000000000000     
   323.00000000000000       -0.0000000000000000     
   324.00000000000000       -0.0000000000000000     
   325.00000000000000       -0.0000000000000000     
   326.00000000000000       -0.0000000000000000     
   327.00000000000000       -0.0000000000000000     
   328.00000000000000       -0.0000000000000000     
   329.00000000000000       -0.0000000000000000     
   330.00000000000000       -0.0000000000000000     
   331.00000000000000       -0.0000000000000000     
   332.00000000000000       -0.0000000000000000     
   333.00000000000000       -0.0000000000000000     
   334.00000000000000       -0.0000000000000000     
   335.00000000000000       -0.0000000000000000     
   336.00000000000000       -0.0000000000000000     
   337.00000000000000       -0.0000000000000000     
   338.00000000000000       -0.0000000000000000     
   339.00000000000000       -0.0000000000000000     
   340.00000000000000       -0.0000000000000000     
   341.00000000000000       -0.0000000000000000     
   342.00000000000000       -0.0000000000000000     
   343.00000000000000       -0.0000000000000000     
   344.00000000000000       -0.0000000000000000     
   345.00000000000000       -0.0000000000000000     
   346.00000000000000       -0.0000000000000000     
   347.00000000000000       -0.0000000000000000     
   348.00000000000000       -0.0000000000000000     
   349.00000000000000       -0.0000000000000000     
   350.00000000000000       -0.0000000000000000     
   351.00000000000000       -0.0000000000000000     
   352.00000000000000       -0.0000000000000000     
   353.00000000000000       -0.0000000000000000     
   354.00000000000000       -0.0000000000000000     
   355.00000000000000       -0.0000000000000000     
   356.00000000000000       -0.0000000000000000     
   357.00000000000000       -0.0000000000000000     
   358.00000000000000       -0.0000000000000000     
   359.00000000000000       -0.0000000000000000     
   360.00000000000000       -0.0000000000000000     
   361.00000000000000       -0.0000000000000000     
   362.00000000000000       -0.0000000000000000     
   363.00000000000000       -0.0000000000000000     
   364.00000000000000       -0.0000000000000000     
   365.00000000000000       -0.0000000000000000     
   366.00000000000000       -0.0000000000000000     
   367.00000000000000       -0.0000000000000000     
   368.00000000000000       -0.0000000000000000     
   369.00000000000000       -0.0000000000000000     
   370.00000000000000       -0.0000000000000000     
   371.00000000000000       -0.0000000000000000     
   372.00000000000000       -0.0000000000000000     
   373.00000000000000       -0.0000000000000000     
   374.00000000000000       -0.0000000000000000     
   375.00000000000000       -0.0000000000000000     
   376.00000000000000       -0.0000000000000000     
