# Recoil energy (kev)        Event rate (events/gev)
   1.0000000000000000        30297705570.024319     
   2.0000000000000000        29499192341.122036     
   3.0000000000000000        28716001732.478989     
   4.0000000000000000        27948153635.544151     
   5.0000000000000000        27195641274.462715     
   6.0000000000000000        26458433794.399693     
   7.0000000000000000        25736481674.352989     
   8.0000000000000000        25029724937.232281     
   9.0000000000000000        24338071349.633472     
   10.000000000000000        23661431038.902466     
   11.000000000000000        22999685920.584045     
   12.000000000000000        22352711118.421825     
   13.000000000000000        21720369719.041744     
   14.000000000000000        21102512596.749554     
   15.000000000000000        20498980543.923901     
   16.000000000000000        19909604795.902847     
   17.000000000000000        19334217361.852562     
   18.000000000000000        18772617189.809185     
   19.000000000000000        18224631557.491497     
   20.000000000000000        17690061220.403873     
   21.000000000000000        17168698929.986773     
   22.000000000000000        16660346763.058861     
   23.000000000000000        16164803637.946175     
   24.000000000000000        15681826000.865530     
   25.000000000000000        15211231409.254118     
   26.000000000000000        14752790515.624517     
   27.000000000000000        14306285721.345343     
   28.000000000000000        13871501037.098782     
   29.000000000000000        13448201637.312868     
   30.000000000000000        13036179685.280931     
   31.000000000000000        12635209502.620485     
   32.000000000000000        12245067026.943205     
   33.000000000000000        11865531630.007847     
   34.000000000000000        11496392580.624647     
   35.000000000000000        11137419165.575140     
   36.000000000000000        10788387621.715122     
   37.000000000000000        10449095202.594818     
   38.000000000000000        10119316600.822214     
   39.000000000000000        9798852401.8726997     
   40.000000000000000        9487479457.7746429     
   41.000000000000000        9184987753.9615669     
   42.000000000000000        8891179865.1028900     
   43.000000000000000        8605842324.3598709     
   44.000000000000000        8328778978.5822992     
   45.000000000000000        8059789285.1978111     
   46.000000000000000        7798673795.9018354     
   47.000000000000000        7545236388.8837252     
   48.000000000000000        7299284282.5426197     
   49.000000000000000        7060628047.2222271     
   50.000000000000000        6829081614.5390501     
   51.000000000000000        6604462283.9981623     
   52.000000000000000        6386590726.6872635     
   53.000000000000000        6175290985.9189548     
   54.000000000000000        5970390474.7541494     
   55.000000000000000        5771719970.3913136     
   56.000000000000000        5579113605.4466906     
   57.000000000000000        5392408856.1835833     
   58.000000000000000        5211446527.7738056     
   59.000000000000000        5036070736.6947556     
   60.000000000000000        4866128890.3799896     
   61.000000000000000        4701471664.2526197     
   62.000000000000000        4541952976.2784300     
   63.000000000000000        4387429959.1808710     
   64.000000000000000        4237762930.4629688     
   65.000000000000000        4092815360.3823600     
   66.000000000000000        3952453838.0252538     
   67.000000000000000        3816548035.6238017     
   68.000000000000000        3684970671.2586546     
   69.000000000000000        3557597470.0854917     
   70.000000000000000        3434307124.2203531     
   71.000000000000000        3314981251.4143910     
   72.000000000000000        3199504352.6440859     
   73.000000000000000        3087763768.7380056     
   74.000000000000000        2979649636.1562653     
   75.000000000000000        2875054842.0337205     
   76.000000000000000        2773874978.5925837     
   77.000000000000000        2676008297.0251980     
   78.000000000000000        2581355660.9424229     
   79.000000000000000        2489820499.4779606     
   80.000000000000000        2401308760.1341515     
   81.000000000000000        2315728861.4496174     
   82.000000000000000        2232991645.5646029     
   83.000000000000000        2153010330.7550755     
   84.000000000000000        2075700464.0022967     
   85.000000000000000        2000979873.6601200     
   86.000000000000000        1928768622.2781744     
   87.000000000000000        1858988959.6351011     
   88.000000000000000        1791565276.0320868     
   89.000000000000000        1726424055.8932841     
   90.000000000000000        1663493831.7161744     
   91.000000000000000        1602705138.4115975     
   92.000000000000000        1543990468.0698466     
   93.000000000000000        1487284225.1862743     
   94.000000000000000        1432522682.3768895     
   95.000000000000000        1379643936.6116602     
   96.000000000000000        1328587865.9906034     
   97.000000000000000        1279296087.0852745     
   98.000000000000000        1231711912.8658731     
   99.000000000000000        1185780311.2320182     
   100.00000000000000        1141447864.1630719     
   101.00000000000000        1098662727.5019271     
   102.00000000000000        1057374591.3843516     
   103.00000000000000        1017534641.3241228     
   104.00000000000000        979095519.96263540     
   105.00000000000000        942011289.49005890     
   106.00000000000000        906237394.74363577     
   107.00000000000000        871730626.98743713     
   108.00000000000000        838449088.37650168     
   109.00000000000000        806352157.10721958     
   110.00000000000000        775400453.25458610     
   111.00000000000000        745555805.29602158     
   112.00000000000000        716781217.32040870     
   113.00000000000000        689040836.92019212     
   114.00000000000000        662299923.76347029     
   115.00000000000000        636524818.84232271     
   116.00000000000000        611682914.39284921     
   117.00000000000000        587742624.48182666     
   118.00000000000000        564673356.25419462     
   119.00000000000000        542445481.83514202     
   120.00000000000000        521030310.87999231     
   121.00000000000000        500400063.76468021     
   122.00000000000000        480527845.40918690     
   123.00000000000000        461387619.72592342     
   124.00000000000000        442954184.68477529     
   125.00000000000000        425203147.98612380     
   126.00000000000000        408110903.33303195     
   127.00000000000000        391654607.29343802     
   128.00000000000000        375812156.74307138     
   129.00000000000000        360562166.87960398     
   130.00000000000000        345883949.79842168     
   131.00000000000000        331757493.62026054     
   132.00000000000000        318163442.16088265     
   133.00000000000000        305083075.13285804     
   134.00000000000000        292498288.86949712     
   135.00000000000000        280391577.56090975     
   136.00000000000000        268746014.99216920     
   137.00000000000000        257545236.77355024     
   138.00000000000000        246773423.05281106     
   139.00000000000000        236415281.69952562     
   140.00000000000000        226456031.95151263     
   141.00000000000000        216881388.51345086     
   142.00000000000000        207677546.09782097     
   143.00000000000000        198831164.39841408     
   144.00000000000000        190329353.48670092     
   145.00000000000000        182159659.62145087     
   146.00000000000000        174310051.46209213     
   147.00000000000000        166768906.67640767     
   148.00000000000000        159524998.93325639     
   149.00000000000000        152567485.27114621     
   150.00000000000000        145885893.83358747     
   151.00000000000000        139470111.96229184     
   152.00000000000000        133310374.63940315     
   153.00000000000000        127397253.27008678     
   154.00000000000000        121721644.79692966     
   155.00000000000000        116274761.13775335     
   156.00000000000000        111048118.93857221     
   157.00000000000000        106033529.63358074     
   158.00000000000000        101223089.80418926     
   159.00000000000000        96609171.829278961     
   160.00000000000000        92184414.818990767     
   161.00000000000000        87941715.824513361     
   162.00000000000000        83874221.316474199     
   163.00000000000000        79975318.924691752     
   164.00000000000000        76238629.432197168     
   165.00000000000000        72657999.016570166     
   166.00000000000000        69227491.731789961     
   167.00000000000000        65941382.223945104     
   168.00000000000000        62794148.674285747     
   169.00000000000000        59780465.963255703     
   170.00000000000000        56895199.049275942     
   171.00000000000000        54133396.556195021     
   172.00000000000000        51490284.563465223     
   173.00000000000000        48961260.593237393     
   174.00000000000000        46541887.788706571     
   175.00000000000000        44227889.278175786     
   176.00000000000000        42015142.719438501     
   177.00000000000000        39899675.019212976     
   178.00000000000000        37877657.222489052     
   179.00000000000000        35945399.566778295     
   180.00000000000000        34099346.696385361     
   181.00000000000000        32336073.031935379     
   182.00000000000000        30652278.290526155     
   183.00000000000000        29044783.151979711     
   184.00000000000000        27510525.066795893     
   185.00000000000000        26046554.201522127     
   186.00000000000000        24650029.517364819     
   187.00000000000000        23318214.977984082     
   188.00000000000000        22048475.882516254     
   189.00000000000000        20838275.319981173     
   190.00000000000000        19685170.741332024     
   191.00000000000000        18586810.645508911     
   192.00000000000000        17540931.375958875     
   193.00000000000000        16545354.024180189     
   194.00000000000000        15597981.436949316     
   195.00000000000000        14696795.323978094     
   196.00000000000000        13839853.462842628     
   197.00000000000000        13025286.998116003     
   198.00000000000000        12251297.831722274     
   199.00000000000000        11516156.101615727     
   200.00000000000000        10818197.745974790     
   201.00000000000000        10155822.150176521     
   202.00000000000000        9527489.8739034347     
   203.00000000000000        8931720.4558073077     
   204.00000000000000        8367090.2932318663     
   205.00000000000000        7832230.5945706181     
   206.00000000000000        7325825.4019073881     
   207.00000000000000        6846609.6816568933     
   208.00000000000000        6393367.4809916066     
   209.00000000000000        5964930.1479082964     
   210.00000000000000        5560174.6128500570     
   211.00000000000000        5178021.7298658891     
   212.00000000000000        4817434.6753489533     
   213.00000000000000        4477417.4024555190     
   214.00000000000000        4157013.1493641459     
   215.00000000000000        3855302.9995924244     
   216.00000000000000        3571404.4926419607     
   217.00000000000000        3304470.2832974242     
   218.00000000000000        3053686.8479565172     
   219.00000000000000        2818273.2364187893     
   220.00000000000000        2597479.8676107153     
   221.00000000000000        2390587.3677712567     
   222.00000000000000        2196905.4496698845     
   223.00000000000000        2015771.8314732639     
   224.00000000000000        1846551.1939210752     
   225.00000000000000        1688634.1745140473     
   226.00000000000000        1541436.3974581535     
   227.00000000000000        1404397.5381502311     
   228.00000000000000        1276980.4210277258     
   229.00000000000000        1158670.1496443748     
   230.00000000000000        1048973.2678698946     
   231.00000000000000        947416.95114729751     
   232.00000000000000        853548.22677617089     
   233.00000000000000        766933.22222394263     
   234.00000000000000        687156.44049931597     
   235.00000000000000        613820.06165413465     
   236.00000000000000        546543.26951002842     
   237.00000000000000        484961.60273633746     
   238.00000000000000        428726.32943424693     
   239.00000000000000        377503.84441011300     
   240.00000000000000        330975.08834799187     
   241.00000000000000        288834.98811760737     
   242.00000000000000        250791.91747926598     
   243.00000000000000        216567.17747201235     
   244.00000000000000        185894.49579501851     
   245.00000000000000        158519.54451532356     
   246.00000000000000        134199.47545749598     
   247.00000000000000        112702.47265234549     
   248.00000000000000        93807.321242812104     
   249.00000000000000        77302.992265558321     
   250.00000000000000        62988.242746373093     
   251.00000000000000        50671.230566567385     
   252.00000000000000        40169.143576008733     
   253.00000000000000        31307.842446222232     
   254.00000000000000        23921.516774332253     
   255.00000000000000        17852.353965288061     
   256.00000000000000        12950.220435969457     
   257.00000000000000        9072.3547005006458     
   258.00000000000000        6083.0719111423232     
   259.00000000000000        3853.4794438580516     
   260.00000000000000        2261.2031317765950     
   261.00000000000000        1190.1237634920362     
   262.00000000000000        530.12347640425060     
   263.00000000000000        176.84168810446539     
   264.00000000000000        31.440221224398144     
   265.00000000000000       0.37728914245073003     
   266.00000000000000       -0.0000000000000000     
   267.00000000000000       -0.0000000000000000     
   268.00000000000000       -0.0000000000000000     
   269.00000000000000       -0.0000000000000000     
   270.00000000000000       -0.0000000000000000     
   271.00000000000000       -0.0000000000000000     
   272.00000000000000       -0.0000000000000000     
   273.00000000000000       -0.0000000000000000     
   274.00000000000000       -0.0000000000000000     
   275.00000000000000       -0.0000000000000000     
   276.00000000000000       -0.0000000000000000     
   277.00000000000000       -0.0000000000000000     
   278.00000000000000       -0.0000000000000000     
   279.00000000000000       -0.0000000000000000     
   280.00000000000000       -0.0000000000000000     
   281.00000000000000       -0.0000000000000000     
   282.00000000000000       -0.0000000000000000     
   283.00000000000000       -0.0000000000000000     
   284.00000000000000       -0.0000000000000000     
   285.00000000000000       -0.0000000000000000     
   286.00000000000000       -0.0000000000000000     
   287.00000000000000       -0.0000000000000000     
   288.00000000000000       -0.0000000000000000     
   289.00000000000000       -0.0000000000000000     
   290.00000000000000       -0.0000000000000000     
   291.00000000000000       -0.0000000000000000     
   292.00000000000000       -0.0000000000000000     
   293.00000000000000       -0.0000000000000000     
   294.00000000000000       -0.0000000000000000     
   295.00000000000000       -0.0000000000000000     
   296.00000000000000       -0.0000000000000000     
   297.00000000000000       -0.0000000000000000     
   298.00000000000000       -0.0000000000000000     
   299.00000000000000       -0.0000000000000000     
   300.00000000000000       -0.0000000000000000     
   301.00000000000000       -0.0000000000000000     
   302.00000000000000       -0.0000000000000000     
   303.00000000000000       -0.0000000000000000     
   304.00000000000000       -0.0000000000000000     
   305.00000000000000       -0.0000000000000000     
   306.00000000000000       -0.0000000000000000     
   307.00000000000000       -0.0000000000000000     
   308.00000000000000       -0.0000000000000000     
   309.00000000000000       -0.0000000000000000     
   310.00000000000000       -0.0000000000000000     
   311.00000000000000       -0.0000000000000000     
   312.00000000000000       -0.0000000000000000     
   313.00000000000000       -0.0000000000000000     
   314.00000000000000       -0.0000000000000000     
   315.00000000000000       -0.0000000000000000     
   316.00000000000000       -0.0000000000000000     
   317.00000000000000       -0.0000000000000000     
   318.00000000000000       -0.0000000000000000     
   319.00000000000000       -0.0000000000000000     
   320.00000000000000       -0.0000000000000000     
   321.00000000000000       -0.0000000000000000     
   322.00000000000000       -0.0000000000000000     
   323.00000000000000       -0.0000000000000000     
   324.00000000000000       -0.0000000000000000     
   325.00000000000000       -0.0000000000000000     
   326.00000000000000       -0.0000000000000000     
   327.00000000000000       -0.0000000000000000     
   328.00000000000000       -0.0000000000000000     
   329.00000000000000       -0.0000000000000000     
   330.00000000000000       -0.0000000000000000     
   331.00000000000000       -0.0000000000000000     
   332.00000000000000       -0.0000000000000000     
   333.00000000000000       -0.0000000000000000     
   334.00000000000000       -0.0000000000000000     
   335.00000000000000       -0.0000000000000000     
   336.00000000000000       -0.0000000000000000     
   337.00000000000000       -0.0000000000000000     
   338.00000000000000       -0.0000000000000000     
   339.00000000000000       -0.0000000000000000     
   340.00000000000000       -0.0000000000000000     
   341.00000000000000       -0.0000000000000000     
   342.00000000000000       -0.0000000000000000     
   343.00000000000000       -0.0000000000000000     
   344.00000000000000       -0.0000000000000000     
   345.00000000000000       -0.0000000000000000     
   346.00000000000000       -0.0000000000000000     
   347.00000000000000       -0.0000000000000000     
   348.00000000000000       -0.0000000000000000     
   349.00000000000000       -0.0000000000000000     
   350.00000000000000       -0.0000000000000000     
   351.00000000000000       -0.0000000000000000     
   352.00000000000000       -0.0000000000000000     
   353.00000000000000       -0.0000000000000000     
   354.00000000000000       -0.0000000000000000     
   355.00000000000000       -0.0000000000000000     
   356.00000000000000       -0.0000000000000000     
   357.00000000000000       -0.0000000000000000     
   358.00000000000000       -0.0000000000000000     
   359.00000000000000       -0.0000000000000000     
   360.00000000000000       -0.0000000000000000     
   361.00000000000000       -0.0000000000000000     
   362.00000000000000       -0.0000000000000000     
   363.00000000000000       -0.0000000000000000     
   364.00000000000000       -0.0000000000000000     
   365.00000000000000       -0.0000000000000000     
   366.00000000000000       -0.0000000000000000     
   367.00000000000000       -0.0000000000000000     
   368.00000000000000       -0.0000000000000000     
   369.00000000000000       -0.0000000000000000     
   370.00000000000000       -0.0000000000000000     
   371.00000000000000       -0.0000000000000000     
   372.00000000000000       -0.0000000000000000     
   373.00000000000000       -0.0000000000000000     
   374.00000000000000       -0.0000000000000000     
   375.00000000000000       -0.0000000000000000     
   376.00000000000000       -0.0000000000000000     
