# Recoil energy (kev)        Event rate (events/gev)
   1.0000000000000000        3.5429754689728953E-005
   2.0000000000000000        6.8820257757191495E-005
   3.0000000000000000        1.0024771528044938E-004
   4.0000000000000000        1.2978653353440013E-004
   5.0000000000000000        1.5750927745735853E-004
   6.0000000000000000        1.8348667235538598E-004
   7.0000000000000000        2.0778759778877881E-004
   8.0000000000000000        2.3047918906788872E-004
   9.0000000000000000        2.5162662450724298E-004
   10.000000000000000        2.7129344770481222E-004
   11.000000000000000        2.8954127262681163E-004
   12.000000000000000        3.0643002222972848E-004
   13.000000000000000        3.2201784413143572E-004
   14.000000000000000        3.3636115075685256E-004
   15.000000000000000        3.4951464535277051E-004
   16.000000000000000        3.6153132814195101E-004
   17.000000000000000        3.7246263207611036E-004
   18.000000000000000        3.8235816299509113E-004
   19.000000000000000        3.9126614335684693E-004
   20.000000000000000        3.9923312033611480E-004
   21.000000000000000        4.0630398348388364E-004
   22.000000000000000        4.1252231705132396E-004
   23.000000000000000        4.1793010542029441E-004
   24.000000000000000        4.2256792315272375E-004
   25.000000000000000        4.2647528027421459E-004
   26.000000000000000        4.2968823425790822E-004
   27.000000000000000        4.3224501090011457E-004
   28.000000000000000        4.3417998437955186E-004
   29.000000000000000        4.3552703014728306E-004
   30.000000000000000        4.3631833979951626E-004
   31.000000000000000        4.3658518314881856E-004
   32.000000000000000        4.3635783854116734E-004
   33.000000000000000        4.3566500161181524E-004
   34.000000000000000        4.3453481361697103E-004
   35.000000000000000        4.3299355258937422E-004
   36.000000000000000        4.3106670563783882E-004
   37.000000000000000        4.2877890196078600E-004
   38.000000000000000        4.2615379898707363E-004
   39.000000000000000        4.2321373648047575E-004
   40.000000000000000        4.1998043299081310E-004
   41.000000000000000        4.1647452509416944E-004
   42.000000000000000        4.1271576122576398E-004
   43.000000000000000        4.0872303150394046E-004
   44.000000000000000        4.0451440781480235E-004
   45.000000000000000        4.0010714310462491E-004
   46.000000000000000        3.9551770701259036E-004
   47.000000000000000        3.9076181580034329E-004
   48.000000000000000        3.8585445768514850E-004
   49.000000000000000        3.8080991762033054E-004
   50.000000000000000        3.7564180151994776E-004
   51.000000000000000        3.7036305992574218E-004
   52.000000000000000        3.6498601111547961E-004
   53.000000000000000        3.5952236365287792E-004
   54.000000000000000        3.5398323838016830E-004
   55.000000000000000        3.4837918985532423E-004
   56.000000000000000        3.4272022723675082E-004
   57.000000000000000        3.3701583461902848E-004
   58.000000000000000        3.3127499082401490E-004
   59.000000000000000        3.2550618865222983E-004
   60.000000000000000        3.1971745360008665E-004
   61.000000000000000        3.1391636204903845E-004
   62.000000000000000        3.0811005893325059E-004
   63.000000000000000        3.0230527489279245E-004
   64.000000000000000        2.9650834291980850E-004
   65.000000000000000        2.9072521450545011E-004
   66.000000000000000        2.8496147529567247E-004
   67.000000000000000        2.7922236026428865E-004
   68.000000000000000        2.7351276841192139E-004
   69.000000000000000        2.6783727699967303E-004
   70.000000000000000        2.6220015532655932E-004
   71.000000000000000        2.5660537805985857E-004
   72.000000000000000        2.5105663812766398E-004
   73.000000000000000        2.4555735918303345E-004
   74.000000000000000        2.4011070764917144E-004
   75.000000000000000        2.3471960435515307E-004
   76.000000000000000        2.2938673577171305E-004
   77.000000000000000        2.2411456485661816E-004
   78.000000000000000        2.1890534151916208E-004
   79.000000000000000        2.1376111271325534E-004
   80.000000000000000        2.0868373216856371E-004
   81.000000000000000        2.0367486976908850E-004
   82.000000000000000        1.9873602058850199E-004
   83.000000000000000        1.9386851359147708E-004
   84.000000000000000        1.8907352001015107E-004
   85.000000000000000        1.8435206140477909E-004
   86.000000000000000        1.7970501741748564E-004
   87.000000000000000        1.7513313322794046E-004
   88.000000000000000        1.7063702671964390E-004
   89.000000000000000        1.6621719536536348E-004
   90.000000000000000        1.6187402284014381E-004
   91.000000000000000        1.5760778537016136E-004
   92.000000000000000        1.5341865782554618E-004
   93.000000000000000        1.4930671956513958E-004
   94.000000000000000        1.4527196004102231E-004
   95.000000000000000        1.4131428417045892E-004
   96.000000000000000        1.3743351748277672E-004
   97.000000000000000        1.3362941104852127E-004
   98.000000000000000        1.2990164619806847E-004
   99.000000000000000        1.2624983903672651E-004
   100.00000000000000        1.2267354476317628E-004
   101.00000000000000        1.1917226179795753E-004
   102.00000000000000        1.1574543572853382E-004
   103.00000000000000        1.1239246307730972E-004
   104.00000000000000        1.0911269489881835E-004
   105.00000000000000        1.0590544021212563E-004
   106.00000000000000        1.0276996927435814E-004
   107.00000000000000        9.9705516701080924E-005
   108.00000000000000        9.6711284439116076E-005
   109.00000000000000        9.3786444597229691E-005
   110.00000000000000        9.0930142139959076E-005
   111.00000000000000        8.8141497449715706E-005
   112.00000000000000        8.5419608762135729E-005
   113.00000000000000        8.2763554479515383E-005
   114.00000000000000        8.0172395367022993E-005
   115.00000000000000        7.7645176636236094E-005
   116.00000000000000        7.5180929920414145E-005
   117.00000000000000        7.2778675145786473E-005
   118.00000000000000        7.0437422302996219E-005
   119.00000000000000        6.8156173122713853E-005
   120.00000000000000        6.5933922659305980E-005
   121.00000000000000        6.3769660786317786E-005
   122.00000000000000        6.1662373607409109E-005
   123.00000000000000        5.9611044786262063E-005
   124.00000000000000        5.7614656798860681E-005
   125.00000000000000        5.5672192111431362E-005
   126.00000000000000        5.3782634287219774E-005
   127.00000000000000        5.1944969025173270E-005
   128.00000000000000        5.0158185133488960E-005
   129.00000000000000        4.8421275440887874E-005
   130.00000000000000        4.6733237648372255E-005
   131.00000000000000        4.5093075124128289E-005
   132.00000000000000        4.3499797644139627E-005
   133.00000000000000        4.1952422080980445E-005
   134.00000000000000        4.0449973043179890E-005
   135.00000000000000        3.8991483467443346E-005
   136.00000000000000        3.7575995165948554E-005
   137.00000000000000        3.6202559330841405E-005
   138.00000000000000        3.4870236997979804E-005
   139.00000000000000        3.3578099471896251E-005
   140.00000000000000        3.2325228713874472E-005
   141.00000000000000        3.1110717694961375E-005
   142.00000000000000        2.9933670715665316E-005
   143.00000000000000        2.8793203694024125E-005
   144.00000000000000        2.7688444423657821E-005
   145.00000000000000        2.6618532803358604E-005
   146.00000000000000        2.5582621039706549E-005
   147.00000000000000        2.4579873824141131E-005
   148.00000000000000        2.3609468485858530E-005
   149.00000000000000        2.2670595121850435E-005
   150.00000000000000        2.1762456705342540E-005
   151.00000000000000        2.0884269173841770E-005
   152.00000000000000        2.0035261497948428E-005
   153.00000000000000        1.9214675732039740E-005
   154.00000000000000        1.8421767047885829E-005
   155.00000000000000        1.7655803752212196E-005
   156.00000000000000        1.6916067289178195E-005
   157.00000000000000        1.6201852228700444E-005
   158.00000000000000        1.5512466241505381E-005
   159.00000000000000        1.4847230061760629E-005
   160.00000000000000        1.4205477438091759E-005
   161.00000000000000        1.3586555073757721E-005
   162.00000000000000        1.2989822556721184E-005
   163.00000000000000        1.2414652280316386E-005
   164.00000000000000        1.1860429355184691E-005
   165.00000000000000        1.1326551513115490E-005
   166.00000000000000        1.0812429003401385E-005
   167.00000000000000        1.0317484482285466E-005
   168.00000000000000        9.8411528960517793E-006
   169.00000000000000        9.3828813582833011E-006
   170.00000000000000        8.9421290217842352E-006
   171.00000000000000        8.5183669456406977E-006
   172.00000000000000        8.1110779578681737E-006
   173.00000000000000        7.7197565140724372E-006
   174.00000000000000        7.3439085525276073E-006
   175.00000000000000        6.9830513460553134E-006
   176.00000000000000        6.6367133510668734E-006
   177.00000000000000        6.3044340541126929E-006
   178.00000000000000        5.9857638162631456E-006
   179.00000000000000        5.6802637156289002E-006
   180.00000000000000        5.3875053883096873E-006
   181.00000000000000        5.1070708680459757E-006
   182.00000000000000        4.8385524248312899E-006
   183.00000000000000        4.5815524027282665E-006
   184.00000000000000        4.3356830571174416E-006
   185.00000000000000        4.1005663915936963E-006
   186.00000000000000        3.8758339947127305E-006
   187.00000000000000        3.6611268767766857E-006
   188.00000000000000        3.4560953068372116E-006
   189.00000000000000        3.2603986500815919E-006
   190.00000000000000        3.0737052057579738E-006
   191.00000000000000        2.8956920457843389E-006
   192.00000000000000        2.7260448541766069E-006
   193.00000000000000        2.5644577674216737E-006
   194.00000000000000        2.4106332159119730E-006
   195.00000000000000        2.2642817665501964E-006
   196.00000000000000        2.1251219666240232E-006
   197.00000000000000        1.9928801890433245E-006
   198.00000000000000        1.8672904790250637E-006
   199.00000000000000        1.7480944023037781E-006
   200.00000000000000        1.6350408949391892E-006
   201.00000000000000        1.5278861147859412E-006
   202.00000000000000        1.4263932946849204E-006
   203.00000000000000        1.3303325974291988E-006
   204.00000000000000        1.2394809725530917E-006
   205.00000000000000        1.1536220149871725E-006
   206.00000000000000        1.0725458256174267E-006
   207.00000000000000        9.9604887378222520E-007
   208.00000000000000        9.2393386173647627E-007
   209.00000000000000        8.5600959110812037E-007
   210.00000000000000        7.9209083136847235E-007
   211.00000000000000        7.3199819033416068E-007
   212.00000000000000        6.7555798671498845E-007
   213.00000000000000        6.2260212471904400E-007
   214.00000000000000        5.7296797072292126E-007
   215.00000000000000        5.2649823201267659E-007
   216.00000000000000        4.8304083759784949E-007
   217.00000000000000        4.4244882109884430E-007
   218.00000000000000        4.0458020570543375E-007
   219.00000000000000        3.6929789120191961E-007
   220.00000000000000        3.3646954305251872E-007
   221.00000000000000        3.0596748353866892E-007
   222.00000000000000        2.7766858493798811E-007
   223.00000000000000        2.5145416473322603E-007
   224.00000000000000        2.2720988283774767E-007
   225.00000000000000        2.0482564082290013E-007
   226.00000000000000        1.8419548313111582E-007
   227.00000000000000        1.6521750025752388E-007
   228.00000000000000        1.4779373388163243E-007
   229.00000000000000        1.3183008392969155E-007
   230.00000000000000        1.1723621754736976E-007
   231.00000000000000        1.0392547996154106E-007
   232.00000000000000        9.1814807209189523E-008
   233.00000000000000        8.0824640710777694E-008
   234.00000000000000        7.0878843664749745E-008
   235.00000000000000        6.1904619239304150E-008
   236.00000000000000        5.3832430537081761E-008
   237.00000000000000        4.6595922307954449E-008
   238.00000000000000        4.0131844384730393E-008
   239.00000000000000        3.4379976816262980E-008
   240.00000000000000        2.9283056672170522E-008
   241.00000000000000        2.4786706493148013E-008
   242.00000000000000        2.0839364360658065E-008
   243.00000000000000        1.7392215559648797E-008
   244.00000000000000        1.4399125807848026E-008
   245.00000000000000        1.1816576025102274E-008
   246.00000000000000        9.6035986162107703E-009
   247.00000000000000        7.7217152406940616E-009
   248.00000000000000        6.1348760429735616E-009
   249.00000000000000        4.8094003164929893E-009
   250.00000000000000        3.7139185754045764E-009
   251.00000000000000        2.8193160075444291E-009
   252.00000000000000        2.0986772825629003E-009
   253.00000000000000        1.5272326892260424E-009
   254.00000000000000        1.0823055760800675E-009
   255.00000000000000        7.4326106986469443E-010
   256.00000000000000        4.9145604626991077E-010
   257.00000000000000        3.1019032785666787E-010
   258.00000000000000        1.8465908420294695E-010
   259.00000000000000        1.0190640958835908E-010
   260.00000000000000        5.0780053796690305E-011
   261.00000000000000        2.1887281891204753E-011
   262.00000000000000        7.5518391037980072E-012
   263.00000000000000        1.7719972737921763E-012
   264.00000000000000        1.7965957511916818E-013
   265.00000000000000        5.0058061201922451E-016
   266.00000000000000       -0.0000000000000000     
   267.00000000000000       -0.0000000000000000     
   268.00000000000000       -0.0000000000000000     
   269.00000000000000       -0.0000000000000000     
   270.00000000000000       -0.0000000000000000     
   271.00000000000000       -0.0000000000000000     
   272.00000000000000       -0.0000000000000000     
   273.00000000000000       -0.0000000000000000     
   274.00000000000000       -0.0000000000000000     
   275.00000000000000       -0.0000000000000000     
   276.00000000000000       -0.0000000000000000     
   277.00000000000000       -0.0000000000000000     
   278.00000000000000       -0.0000000000000000     
   279.00000000000000       -0.0000000000000000     
   280.00000000000000       -0.0000000000000000     
   281.00000000000000       -0.0000000000000000     
   282.00000000000000       -0.0000000000000000     
   283.00000000000000       -0.0000000000000000     
   284.00000000000000       -0.0000000000000000     
   285.00000000000000       -0.0000000000000000     
   286.00000000000000       -0.0000000000000000     
   287.00000000000000       -0.0000000000000000     
   288.00000000000000       -0.0000000000000000     
   289.00000000000000       -0.0000000000000000     
   290.00000000000000       -0.0000000000000000     
   291.00000000000000       -0.0000000000000000     
   292.00000000000000       -0.0000000000000000     
   293.00000000000000       -0.0000000000000000     
   294.00000000000000       -0.0000000000000000     
   295.00000000000000       -0.0000000000000000     
   296.00000000000000       -0.0000000000000000     
   297.00000000000000       -0.0000000000000000     
   298.00000000000000       -0.0000000000000000     
   299.00000000000000       -0.0000000000000000     
   300.00000000000000       -0.0000000000000000     
   301.00000000000000       -0.0000000000000000     
   302.00000000000000       -0.0000000000000000     
   303.00000000000000       -0.0000000000000000     
   304.00000000000000       -0.0000000000000000     
   305.00000000000000       -0.0000000000000000     
   306.00000000000000       -0.0000000000000000     
   307.00000000000000       -0.0000000000000000     
   308.00000000000000       -0.0000000000000000     
   309.00000000000000       -0.0000000000000000     
   310.00000000000000       -0.0000000000000000     
   311.00000000000000       -0.0000000000000000     
   312.00000000000000       -0.0000000000000000     
   313.00000000000000       -0.0000000000000000     
   314.00000000000000       -0.0000000000000000     
   315.00000000000000       -0.0000000000000000     
   316.00000000000000       -0.0000000000000000     
   317.00000000000000       -0.0000000000000000     
   318.00000000000000       -0.0000000000000000     
   319.00000000000000       -0.0000000000000000     
   320.00000000000000       -0.0000000000000000     
   321.00000000000000       -0.0000000000000000     
   322.00000000000000       -0.0000000000000000     
   323.00000000000000       -0.0000000000000000     
   324.00000000000000       -0.0000000000000000     
   325.00000000000000       -0.0000000000000000     
   326.00000000000000       -0.0000000000000000     
   327.00000000000000       -0.0000000000000000     
   328.00000000000000       -0.0000000000000000     
   329.00000000000000       -0.0000000000000000     
   330.00000000000000       -0.0000000000000000     
   331.00000000000000       -0.0000000000000000     
   332.00000000000000       -0.0000000000000000     
   333.00000000000000       -0.0000000000000000     
   334.00000000000000       -0.0000000000000000     
   335.00000000000000       -0.0000000000000000     
   336.00000000000000       -0.0000000000000000     
   337.00000000000000       -0.0000000000000000     
   338.00000000000000       -0.0000000000000000     
   339.00000000000000       -0.0000000000000000     
   340.00000000000000       -0.0000000000000000     
   341.00000000000000       -0.0000000000000000     
   342.00000000000000       -0.0000000000000000     
   343.00000000000000       -0.0000000000000000     
   344.00000000000000       -0.0000000000000000     
   345.00000000000000       -0.0000000000000000     
   346.00000000000000       -0.0000000000000000     
   347.00000000000000       -0.0000000000000000     
   348.00000000000000       -0.0000000000000000     
   349.00000000000000       -0.0000000000000000     
   350.00000000000000       -0.0000000000000000     
   351.00000000000000       -0.0000000000000000     
   352.00000000000000       -0.0000000000000000     
   353.00000000000000       -0.0000000000000000     
   354.00000000000000       -0.0000000000000000     
   355.00000000000000       -0.0000000000000000     
   356.00000000000000       -0.0000000000000000     
   357.00000000000000       -0.0000000000000000     
   358.00000000000000       -0.0000000000000000     
   359.00000000000000       -0.0000000000000000     
   360.00000000000000       -0.0000000000000000     
   361.00000000000000       -0.0000000000000000     
   362.00000000000000       -0.0000000000000000     
   363.00000000000000       -0.0000000000000000     
   364.00000000000000       -0.0000000000000000     
   365.00000000000000       -0.0000000000000000     
   366.00000000000000       -0.0000000000000000     
   367.00000000000000       -0.0000000000000000     
   368.00000000000000       -0.0000000000000000     
   369.00000000000000       -0.0000000000000000     
   370.00000000000000       -0.0000000000000000     
   371.00000000000000       -0.0000000000000000     
   372.00000000000000       -0.0000000000000000     
   373.00000000000000       -0.0000000000000000     
   374.00000000000000       -0.0000000000000000     
   375.00000000000000       -0.0000000000000000     
   376.00000000000000       -0.0000000000000000     
