# Recoil energy (kev)        Event rate (events/gev)
   1.0000000000000000       0.39206142926567006     
   2.0000000000000000       0.76005574246181506     
   3.0000000000000000        1.1049548696647564     
   4.0000000000000000        1.4277044835892918     
   5.0000000000000000        1.7292237270659372     
   6.0000000000000000        2.0104054200830794     
   7.0000000000000000        2.2721161817064095     
   8.0000000000000000        2.5151977274278345     
   9.0000000000000000        2.7404647314613544     
   10.000000000000000        2.9487085325446150     
   11.000000000000000        3.1406941031301154     
   12.000000000000000        3.3171628335117451     
   13.000000000000000        3.4788317960833774     
   14.000000000000000        3.6263943631975626     
   15.000000000000000        3.7605206681127972     
   16.000000000000000        3.8818578498688066     
   17.000000000000000        3.9910316865236348     
   18.000000000000000        4.0886439799554299     
   19.000000000000000        4.1752774854779844     
   20.000000000000000        4.2514929466181188     
   21.000000000000000        4.3178294599704730     
   22.000000000000000        4.3748083893117959     
   23.000000000000000        4.4229303831215514     
   24.000000000000000        4.4626775528062748     
   25.000000000000000        4.4945172753603195     
   26.000000000000000        4.5188771189851868     
   27.000000000000000        4.5362043542807884     
   28.000000000000000        4.5469025175287889     
   29.000000000000000        4.5513669490433593     
   30.000000000000000        4.5499724542336546     
   31.000000000000000        4.5430814377433419     
   32.000000000000000        4.5310432740342819     
   33.000000000000000        4.5141882719122517     
   34.000000000000000        4.4928384943192485     
   35.000000000000000        4.4672942807926672     
   36.000000000000000        4.4378455477201202     
   37.000000000000000        4.4047711384622286     
   38.000000000000000        4.3683377699005552     
   39.000000000000000        4.3287965831025517     
   40.000000000000000        4.2863904180004706     
   41.000000000000000        4.2413491620572357     
   42.000000000000000        4.1938918503387175     
   43.000000000000000        4.1442270660750529     
   44.000000000000000        4.0925534497622751     
   45.000000000000000        4.0390597604602601     
   46.000000000000000        3.9839253307818852     
   47.000000000000000        3.9273204564938813     
   48.000000000000000        3.8694067331312771     
   49.000000000000000        3.8103373838296357     
   50.000000000000000        3.7502575784220746     
   51.000000000000000        3.6893047438604554     
   52.000000000000000        3.6276088660312436     
   53.000000000000000        3.5652927830474992     
   54.000000000000000        3.5024724701077452     
   55.000000000000000        3.4392573160217204     
   56.000000000000000        3.3757503915109326     
   57.000000000000000        3.3120487093993165     
   58.000000000000000        3.2482434768159534     
   59.000000000000000        3.1844203395376440     
   60.000000000000000        3.1206596186044044     
   61.000000000000000        3.0570365393455501     
   62.000000000000000        2.9936214529579672     
   63.000000000000000        2.9304800507816462     
   64.000000000000000        2.8676735714204136     
   65.000000000000000        2.8052590008581837     
   66.000000000000000        2.7432892657229431     
   67.000000000000000        2.6818134198521446     
   68.000000000000000        2.6208768243142857     
   69.000000000000000        2.5605213210420525     
   70.000000000000000        2.5007854002327718     
   71.000000000000000        2.4417043616719072     
   72.000000000000000        2.3833104701349730     
   73.000000000000000        2.3256331050226957     
   74.000000000000000        2.2686989043833705     
   75.000000000000000        2.2125319034753201     
   76.000000000000000        2.1571536680209560     
   77.000000000000000        2.1025834223025903     
   78.000000000000000        2.0488381722483728     
   79.000000000000000        1.9959328236548834     
   80.000000000000000        1.9438802956910695     
   81.000000000000000        1.8926916298258927     
   82.000000000000000        1.8423760943200576     
   83.000000000000000        1.7929412844197219     
   84.000000000000000        1.7443932183877180     
   85.000000000000000        1.6967364295054015     
   86.000000000000000        1.6499740541755681     
   87.000000000000000        1.6041079162543903     
   88.000000000000000        1.5591386077376141     
   89.000000000000000        1.5150655659236048     
   90.000000000000000        1.4718871471730393     
   91.000000000000000        1.4296006973824744     
   92.000000000000000        1.3882026192860522     
   93.000000000000000        1.3476884366970281     
   94.000000000000000        1.3080528557979794     
   95.000000000000000        1.2692898235857748     
   96.000000000000000        1.2313925835747164     
   97.000000000000000        1.1943537288584496     
   98.000000000000000        1.1581652526286141     
   99.000000000000000        1.1228185962454591     
   100.00000000000000        1.0883046949530080     
   101.00000000000000        1.0546140213287460     
   102.00000000000000        1.0217366265551513     
   103.00000000000000       0.98966217959789560     
   104.00000000000000       0.95838000437294257     
   105.00000000000000       0.92787911498234354     
   106.00000000000000       0.89814824909603241     
   107.00000000000000       0.86917589955455166     
   108.00000000000000       0.84095034426526005     
   109.00000000000000       0.81345967446225753     
   110.00000000000000       0.78669182139800387     
   111.00000000000000       0.76063458153235586     
   112.00000000000000       0.73527564028260317     
   113.00000000000000       0.71060259439592643     
   114.00000000000000       0.68660297300363948     
   115.00000000000000       0.66326425741452344     
   116.00000000000000       0.64057389970259138     
   117.00000000000000       0.61851934014269228     
   118.00000000000000       0.59708802354544177     
   119.00000000000000       0.57626741454117703     
   120.00000000000000       0.55604501186079835     
   121.00000000000000       0.53640836165963579     
   122.00000000000000       0.51734506992878926     
   123.00000000000000       0.49884281403672731     
   124.00000000000000       0.48088935344233286     
   125.00000000000000       0.46347253961902940     
   126.00000000000000       0.44658032522810204     
   127.00000000000000       0.43020077257788125     
   128.00000000000000       0.41432206140399741     
   129.00000000000000       0.39893249600456948     
   130.00000000000000       0.38402051176283836     
   131.00000000000000       0.36957468108845343     
   132.00000000000000       0.35558371880738909     
   133.00000000000000       0.34203648702921347     
   134.00000000000000       0.32892199951930440     
   135.00000000000000       0.31622942560242767     
   136.00000000000000       0.30394809362302611     
   137.00000000000000       0.29206749398648002     
   138.00000000000000       0.28057728180458447     
   139.00000000000000       0.26946727916750252     
   140.00000000000000       0.25872747706349009     
   141.00000000000000       0.24834803696674834     
   142.00000000000000       0.23831929211290456     
   143.00000000000000       0.22863174848072620     
   144.00000000000000       0.21927608549786265     
   145.00000000000000       0.21024315648760986     
   146.00000000000000       0.20152398887291142     
   147.00000000000000       0.19310978415308672     
   148.00000000000000       0.18499191766803919     
   149.00000000000000       0.17716193816403847     
   150.00000000000000       0.16961156717447906     
   151.00000000000000       0.16233269822841043     
   152.00000000000000       0.15531739589900101     
   153.00000000000000       0.14855789470351932     
   154.00000000000000       0.14204659786585283     
   155.00000000000000       0.13577607595204125     
   156.00000000000000       0.12973906538877022     
   157.00000000000000       0.12392846687429222     
   158.00000000000000       0.11833734369073541     
   159.00000000000000       0.11295891992632785     
   160.00000000000000       0.10778657861559940     
   161.00000000000000       0.10281385980521887     
   162.00000000000000        9.8034458552702666E-002
   163.00000000000000        9.3442222864857899E-002
   164.00000000000000        8.9031151582439530E-002
   165.00000000000000        8.4795392217148866E-002
   166.00000000000000        8.0729238746762383E-002
   167.00000000000000        7.6827129373851361E-002
   168.00000000000000        7.3083644253235935E-002
   169.00000000000000        6.9493503193035294E-002
   170.00000000000000        6.6051563333867261E-002
   171.00000000000000        6.2752816810503695E-002
   172.00000000000000        5.9592388400005317E-002
   173.00000000000000        5.6565533160131916E-002
   174.00000000000000        5.3667634061569665E-002
   175.00000000000000        5.0894199617307671E-002
   176.00000000000000        4.8240861512267003E-002
   177.00000000000000        4.5703372236091111E-002
   178.00000000000000        4.3277602721802727E-002
   179.00000000000000        4.0959539992856848E-002
   180.00000000000000        3.8745284820930322E-002
   181.00000000000000        3.6631049396630963E-002
   182.00000000000000        3.4613155015142914E-002
   183.00000000000000        3.2688029778675062E-002
   184.00000000000000        3.0852206317436653E-002
   185.00000000000000        2.9102319530722558E-002
   186.00000000000000        2.7435104349567013E-002
   187.00000000000000        2.5847393522294392E-002
   188.00000000000000        2.4336115424186195E-002
   189.00000000000000        2.2898291892364721E-002
   190.00000000000000        2.1531036086897343E-002
   191.00000000000000        2.0231550379019338E-002
   192.00000000000000        1.8997124267283318E-002
   193.00000000000000        1.7825132322354484E-002
   194.00000000000000        1.6713032161085238E-002
   195.00000000000000        1.5658362450427222E-002
   196.00000000000000        1.4658740941661075E-002
   197.00000000000000        1.3711862535356263E-002
   198.00000000000000        1.2815497377407923E-002
   199.00000000000000        1.1967488986433465E-002
   200.00000000000000        1.1165752412755739E-002
   201.00000000000000        1.0408272429143425E-002
   202.00000000000000        9.6931017534301559E-003
   203.00000000000000        9.0183593030826129E-003
   204.00000000000000        8.3822284817468614E-003
   205.00000000000000        7.7829554977575247E-003
   206.00000000000000        7.2188477145566365E-003
   207.00000000000000        6.6882720329319682E-003
   208.00000000000000        6.1896533049517729E-003
   209.00000000000000        5.7214727794402519E-003
   210.00000000000000        5.2822665788098992E-003
   211.00000000000000        4.8706242070395821E-003
   212.00000000000000        4.4851870885618842E-003
   213.00000000000000        4.1246471378018745E-003
   214.00000000000000        3.7877453590858664E-003
   215.00000000000000        3.4732704766228827E-003
   216.00000000000000        3.1800575942402157E-003
   217.00000000000000        2.9069868845415965E-003
   218.00000000000000        2.6529823071403669E-003
   219.00000000000000        2.4170103556071373E-003
   220.00000000000000        2.1980788327599157E-003
   221.00000000000000        1.9952356539145741E-003
   222.00000000000000        1.8075676777030670E-003
   223.00000000000000        1.6341995640601983E-003
   224.00000000000000        1.4742926589711772E-003
   225.00000000000000        1.3270439055672813E-003
   226.00000000000000        1.1916847811508690E-003
   227.00000000000000        1.0674802597275528E-003
   228.00000000000000        9.5372779961894888E-004
   229.00000000000000        8.4975635572770848E-004
   230.00000000000000        7.5492541602389344E-004
   231.00000000000000        6.6862406182083647E-004
   232.00000000000000        5.9027005140783171E-004
   233.00000000000000        5.1930892660720374E-004
   234.00000000000000        4.5521314182357496E-004
   235.00000000000000        3.9748121515430375E-004
   236.00000000000000        3.4563690113167776E-004
   237.00000000000000        2.9922838466927274E-004
   238.00000000000000        2.5782749578736502E-004
   239.00000000000000        2.2102894469499813E-004
   240.00000000000000        1.8844957680947549E-004
   241.00000000000000        1.5972764729748685E-004
   242.00000000000000        1.3452211472577099E-004
   243.00000000000000        1.1251195341328512E-004
   244.00000000000000        9.3395484081108108E-005
   245.00000000000000        7.6889722400778996E-005
   246.00000000000000        6.2729745046491558E-005
   247.00000000000000        5.0668072861437570E-005
   248.00000000000000        4.0474070753647237E-005
   249.00000000000000        3.1933363941862589E-005
   250.00000000000000        2.4847270177347055E-005
   251.00000000000000        1.9032247572924543E-005
   252.00000000000000        1.4319357676143443E-005
   253.00000000000000        1.0553743429057622E-005
   254.00000000000000        7.5941216628469769E-006
   255.00000000000000        5.3122897812573803E-006
   256.00000000000000        3.5926462926615437E-006
   257.00000000000000        2.3317248563974673E-006
   258.00000000000000        1.4377415149282133E-006
   259.00000000000000        8.3015478926715579E-007
   260.00000000000000        4.3923832102605728E-007
   261.00000000000000        2.0566575035701843E-007
   262.00000000000000        8.0107524967047178E-008
   263.00000000000000        2.2839341274681297E-008
   264.00000000000000        3.3619246530477852E-009
   265.00000000000000        3.1861547319499670E-011
   266.00000000000000       -0.0000000000000000     
   267.00000000000000       -0.0000000000000000     
   268.00000000000000       -0.0000000000000000     
   269.00000000000000       -0.0000000000000000     
   270.00000000000000       -0.0000000000000000     
   271.00000000000000       -0.0000000000000000     
   272.00000000000000       -0.0000000000000000     
   273.00000000000000       -0.0000000000000000     
   274.00000000000000       -0.0000000000000000     
   275.00000000000000       -0.0000000000000000     
   276.00000000000000       -0.0000000000000000     
   277.00000000000000       -0.0000000000000000     
   278.00000000000000       -0.0000000000000000     
   279.00000000000000       -0.0000000000000000     
   280.00000000000000       -0.0000000000000000     
   281.00000000000000       -0.0000000000000000     
   282.00000000000000       -0.0000000000000000     
   283.00000000000000       -0.0000000000000000     
   284.00000000000000       -0.0000000000000000     
   285.00000000000000       -0.0000000000000000     
   286.00000000000000       -0.0000000000000000     
   287.00000000000000       -0.0000000000000000     
   288.00000000000000       -0.0000000000000000     
   289.00000000000000       -0.0000000000000000     
   290.00000000000000       -0.0000000000000000     
   291.00000000000000       -0.0000000000000000     
   292.00000000000000       -0.0000000000000000     
   293.00000000000000       -0.0000000000000000     
   294.00000000000000       -0.0000000000000000     
   295.00000000000000       -0.0000000000000000     
   296.00000000000000       -0.0000000000000000     
   297.00000000000000       -0.0000000000000000     
   298.00000000000000       -0.0000000000000000     
   299.00000000000000       -0.0000000000000000     
   300.00000000000000       -0.0000000000000000     
   301.00000000000000       -0.0000000000000000     
   302.00000000000000       -0.0000000000000000     
   303.00000000000000       -0.0000000000000000     
   304.00000000000000       -0.0000000000000000     
   305.00000000000000       -0.0000000000000000     
   306.00000000000000       -0.0000000000000000     
   307.00000000000000       -0.0000000000000000     
   308.00000000000000       -0.0000000000000000     
   309.00000000000000       -0.0000000000000000     
   310.00000000000000       -0.0000000000000000     
   311.00000000000000       -0.0000000000000000     
   312.00000000000000       -0.0000000000000000     
   313.00000000000000       -0.0000000000000000     
   314.00000000000000       -0.0000000000000000     
   315.00000000000000       -0.0000000000000000     
   316.00000000000000       -0.0000000000000000     
   317.00000000000000       -0.0000000000000000     
   318.00000000000000       -0.0000000000000000     
   319.00000000000000       -0.0000000000000000     
   320.00000000000000       -0.0000000000000000     
   321.00000000000000       -0.0000000000000000     
   322.00000000000000       -0.0000000000000000     
   323.00000000000000       -0.0000000000000000     
   324.00000000000000       -0.0000000000000000     
   325.00000000000000       -0.0000000000000000     
   326.00000000000000       -0.0000000000000000     
   327.00000000000000       -0.0000000000000000     
   328.00000000000000       -0.0000000000000000     
   329.00000000000000       -0.0000000000000000     
   330.00000000000000       -0.0000000000000000     
   331.00000000000000       -0.0000000000000000     
   332.00000000000000       -0.0000000000000000     
   333.00000000000000       -0.0000000000000000     
   334.00000000000000       -0.0000000000000000     
   335.00000000000000       -0.0000000000000000     
   336.00000000000000       -0.0000000000000000     
   337.00000000000000       -0.0000000000000000     
   338.00000000000000       -0.0000000000000000     
   339.00000000000000       -0.0000000000000000     
   340.00000000000000       -0.0000000000000000     
   341.00000000000000       -0.0000000000000000     
   342.00000000000000       -0.0000000000000000     
   343.00000000000000       -0.0000000000000000     
   344.00000000000000       -0.0000000000000000     
   345.00000000000000       -0.0000000000000000     
   346.00000000000000       -0.0000000000000000     
   347.00000000000000       -0.0000000000000000     
   348.00000000000000       -0.0000000000000000     
   349.00000000000000       -0.0000000000000000     
   350.00000000000000       -0.0000000000000000     
   351.00000000000000       -0.0000000000000000     
   352.00000000000000       -0.0000000000000000     
   353.00000000000000       -0.0000000000000000     
   354.00000000000000       -0.0000000000000000     
   355.00000000000000       -0.0000000000000000     
   356.00000000000000       -0.0000000000000000     
   357.00000000000000       -0.0000000000000000     
   358.00000000000000       -0.0000000000000000     
   359.00000000000000       -0.0000000000000000     
   360.00000000000000       -0.0000000000000000     
   361.00000000000000       -0.0000000000000000     
   362.00000000000000       -0.0000000000000000     
   363.00000000000000       -0.0000000000000000     
   364.00000000000000       -0.0000000000000000     
   365.00000000000000       -0.0000000000000000     
   366.00000000000000       -0.0000000000000000     
   367.00000000000000       -0.0000000000000000     
   368.00000000000000       -0.0000000000000000     
   369.00000000000000       -0.0000000000000000     
   370.00000000000000       -0.0000000000000000     
   371.00000000000000       -0.0000000000000000     
   372.00000000000000       -0.0000000000000000     
   373.00000000000000       -0.0000000000000000     
   374.00000000000000       -0.0000000000000000     
   375.00000000000000       -0.0000000000000000     
   376.00000000000000       -0.0000000000000000     
