# Recoil energy (kev)        Event rate (events/gev)
   1.0000000000000000        1.5375226805852935E-005
   2.0000000000000000        1.1989311295424386E-004
   3.0000000000000000        3.9435313883058343E-004
   4.0000000000000000        9.1083496040229579E-004
   5.0000000000000000        1.7331151682999934E-003
   6.0000000000000000        2.9170840855509460E-003
   7.0000000000000000        4.5111609557946172E-003
   8.0000000000000000        6.5567075098762716E-003
   9.0000000000000000        9.0884300233583567E-003
   10.000000000000000        1.2134787657759927E-002
   11.000000000000000        1.5718375913414805E-002
   12.000000000000000        1.9856317129669201E-002
   13.000000000000000        2.4560633459874682E-002
   14.000000000000000        2.9838609458362329E-002
   15.000000000000000        3.5693145419562124E-002
   16.000000000000000        4.2123097647342796E-002
   17.000000000000000        4.9123630681893175E-002
   18.000000000000000        5.6686450753853000E-002
   19.000000000000000        6.4800261604240933E-002
   20.000000000000000        7.3450919285872454E-002
   21.000000000000000        8.2621739490981505E-002
   22.000000000000000        9.2293843844093920E-002
   23.000000000000000       0.10244638132689611     
   24.000000000000000       0.11305649026195753     
   25.000000000000000       0.12410018807240449     
   26.000000000000000       0.13555189458450717     
   27.000000000000000       0.14738501376200555     
   28.000000000000000       0.15957207554384595     
   29.000000000000000       0.17208467014820253     
   30.000000000000000       0.18489414206764060     
   31.000000000000000       0.19797123192020530     
   32.000000000000000       0.21128642812891996     
   33.000000000000000       0.22481014177132358     
   34.000000000000000       0.23851298669453178     
   35.000000000000000       0.25236530271885604     
   36.000000000000000       0.26633772170205722     
   37.000000000000000       0.28040168697540552     
   38.000000000000000       0.29452848527215103     
   39.000000000000000       0.30869057722267113     
   40.000000000000000       0.32286026847357596     
   41.000000000000000       0.33701079979022497     
   42.000000000000000       0.35111651755530821     
   43.000000000000000       0.36515185654051874     
   44.000000000000000       0.37909262803138055     
   45.000000000000000       0.39291522274637170     
   46.000000000000000       0.40659681593337721     
   47.000000000000000       0.42011548502721946     
   48.000000000000000       0.43345023467115706     
   49.000000000000000       0.44658101696198477     
   50.000000000000000       0.45948874721543426     
   51.000000000000000       0.47215531553960399     
   52.000000000000000       0.48456359449488506     
   53.000000000000000       0.49669744310939251     
   54.000000000000000       0.50854170750934991     
   55.000000000000000       0.52008221841416813     
   56.000000000000000       0.53130578573626597     
   57.000000000000000       0.54220019051595070     
   58.000000000000000       0.55275417441198682     
   59.000000000000000       0.56295742695888584     
   60.000000000000000       0.57280057079240210     
   61.000000000000000       0.58227514503535294     
   62.000000000000000       0.59137358702661880     
   63.000000000000000       0.60008921256710446     
   64.000000000000000       0.60841619484754161     
   65.000000000000000       0.61634954221432559     
   66.000000000000000       0.62388507492108303     
   67.000000000000000       0.63101940100541665     
   68.000000000000000       0.63774989142223804     
   69.000000000000000       0.64407465455731405     
   70.000000000000000       0.64999251023709614     
   71.000000000000000       0.65550296334361735     
   72.000000000000000       0.66060617713619041     
   73.000000000000000       0.66530294637485965     
   74.000000000000000       0.66959467033398590     
   75.000000000000000       0.67348332578810988     
   76.000000000000000       0.67697144004617771     
   77.000000000000000       0.68006206410441938     
   78.000000000000000       0.68275874598267405     
   79.000000000000000       0.68506550430362934     
   80.000000000000000       0.68698680216941710     
   81.000000000000000       0.68852752138519091     
   82.000000000000000       0.68969293707470869     
   83.000000000000000       0.69048869272862146     
   84.000000000000000       0.69092077572202693     
   85.000000000000000       0.69099549333389454     
   86.000000000000000       0.69071944929731632     
   87.000000000000000       0.69009952090598869     
   88.000000000000000       0.68914283669904697     
   89.000000000000000       0.68785675474324548     
   90.000000000000000       0.68624884152854937     
   91.000000000000000       0.68432685149046035     
   92.000000000000000       0.68209870716980847     
   93.000000000000000       0.67957248001831860     
   94.000000000000000       0.67675637185603432     
   95.000000000000000       0.67365869698456182     
   96.000000000000000       0.67028786495812409     
   97.000000000000000       0.66665236401265482     
   98.000000000000000       0.66276074515141481     
   99.000000000000000       0.65862160688413063     
   100.00000000000000       0.65424358061518406     
   101.00000000000000       0.64963531667507657     
   102.00000000000000       0.64480547098823393     
   103.00000000000000       0.63976269236904981     
   104.00000000000000       0.63451561043717875     
   105.00000000000000       0.62907282414209864     
   106.00000000000000       0.62344289088621252     
   107.00000000000000       0.61763431623504017     
   108.00000000000000       0.61165554420238621     
   109.00000000000000       0.60551494809785544     
   110.00000000000000       0.59922082192354098     
   111.00000000000000       0.59278137230636507     
   112.00000000000000       0.58620471095210791     
   113.00000000000000       0.57949884760697146     
   114.00000000000000       0.57267168351217890     
   115.00000000000000       0.56573100533700105     
   116.00000000000000       0.55868447957543244     
   117.00000000000000       0.55153964739164973     
   118.00000000000000       0.54430391989933891     
   119.00000000000000       0.53698457385997500     
   120.00000000000000       0.52958874778514753     
   121.00000000000000       0.52212343842810138     
   122.00000000000000       0.51459549764975610     
   123.00000000000000       0.50701162964455693     
   124.00000000000000       0.49937838851171545     
   125.00000000000000       0.49170217615748268     
   126.00000000000000       0.48398924051439057     
   127.00000000000000       0.47624567406350654     
   128.00000000000000       0.46847741264605913     
   129.00000000000000       0.46069023455097685     
   130.00000000000000       0.45288975986517743     
   131.00000000000000       0.44508145007369820     
   132.00000000000000       0.43727060789703276     
   133.00000000000000       0.42946237735336007     
   134.00000000000000       0.42166174403360868     
   135.00000000000000       0.41387353557763579     
   136.00000000000000       0.40610242234009897     
   137.00000000000000       0.39835291823491609     
   138.00000000000000       0.39062938174751849     
   139.00000000000000       0.38293601710443592     
   140.00000000000000       0.37527687559006184     
   141.00000000000000       0.36765585700079334     
   142.00000000000000       0.36007671122700269     
   143.00000000000000       0.35254303995370956     
   144.00000000000000       0.34505829847105740     
   145.00000000000000       0.33762579758606215     
   146.00000000000000       0.33024870562739939     
   147.00000000000000       0.32293005053531826     
   148.00000000000000       0.31567272202905994     
   149.00000000000000       0.30847947384447572     
   150.00000000000000       0.30135292603483932     
   151.00000000000000       0.29429556732812723     
   152.00000000000000       0.28730975753434135     
   153.00000000000000       0.28039772999673673     
   154.00000000000000       0.27356159408106673     
   155.00000000000000       0.26680333769726478     
   156.00000000000000       0.26012482984822044     
   157.00000000000000       0.25352782320057787     
   158.00000000000000       0.24701395667273571     
   159.00000000000000       0.24058475803546311     
   160.00000000000000       0.23424164652080590     
   161.00000000000000       0.22798593543517409     
   162.00000000000000       0.22181883477272785     
   163.00000000000000       0.21574145382540072     
   164.00000000000000       0.20975480378612218     
   165.00000000000000       0.20385980034198548     
   166.00000000000000       0.19805726625432529     
   167.00000000000000       0.19234793392285479     
   168.00000000000000       0.18673244793118948     
   169.00000000000000       0.18121136757128170     
   170.00000000000000       0.17578516934444985     
   171.00000000000000       0.17045424943684995     
   172.00000000000000       0.16521892616741646     
   173.00000000000000       0.16007944240642613     
   174.00000000000000       0.15503596796301164     
   175.00000000000000       0.15008860194007631     
   176.00000000000000       0.14523737505520595     
   177.00000000000000       0.14048225192630362     
   178.00000000000000       0.13582313332079321     
   179.00000000000000       0.13125985836735893     
   180.00000000000000       0.12679220672931094     
   181.00000000000000       0.12241990073875048     
   182.00000000000000       0.11814260749085034     
   183.00000000000000       0.11395994089762469     
   184.00000000000000       0.10987146370067960     
   185.00000000000000       0.10587668944252659     
   186.00000000000000       0.10197508439610449     
   187.00000000000000        9.8166069452262597E-002
   188.00000000000000        9.4449021965007790E-002
   189.00000000000000        9.0823277554409693E-002
   190.00000000000000        8.7288131867114788E-002
   191.00000000000000        8.3842842294483674E-002
   192.00000000000000        8.0486629648435115E-002
   193.00000000000000        7.7218679795116860E-002
   194.00000000000000        7.4038145246605611E-002
   195.00000000000000        7.0944146710856207E-002
   196.00000000000000        6.7935774600186072E-002
   197.00000000000000        6.5012090498620334E-002
   198.00000000000000        6.2172128588455104E-002
   199.00000000000000        5.9414897036442087E-002
   200.00000000000000        5.6739379340032731E-002
   201.00000000000000        5.4144535634134981E-002
   202.00000000000000        5.1629303958890461E-002
   203.00000000000000        4.9192601488986167E-002
   204.00000000000000        4.6833325725044853E-002
   205.00000000000000        4.4550355647663006E-002
   206.00000000000000        4.2342552834684084E-002
   207.00000000000000        4.0208762542307319E-002
   208.00000000000000        3.8147814750654312E-002
   209.00000000000000        3.6158525174429912E-002
   210.00000000000000        3.4239696239317101E-002
   211.00000000000000        3.2390118024767975E-002
   212.00000000000000        3.0608569173854541E-002
   213.00000000000000        2.8893817770851163E-002
   214.00000000000000        2.7244622187227625E-002
   215.00000000000000        2.5659731896738494E-002
   216.00000000000000        2.4137888260292679E-002
   217.00000000000000        2.2677825281294195E-002
   218.00000000000000        2.1278270332142558E-002
   219.00000000000000        1.9937944852583982E-002
   220.00000000000000        1.8655565020603310E-002
   221.00000000000000        1.7429842396540291E-002
   222.00000000000000        1.6259484541118009E-002
   223.00000000000000        1.5143195608061868E-002
   224.00000000000000        1.4079676911985846E-002
   225.00000000000000        1.3067627472217883E-002
   226.00000000000000        1.2105744533226534E-002
   227.00000000000000        1.1192724062312929E-002
   228.00000000000000        1.0327261225214443E-002
   229.00000000000000        9.5080508402673163E-003
   230.00000000000000        8.7337878117645564E-003
   231.00000000000000        8.0031675431364198E-003
   232.00000000000000        7.3148863305724388E-003
   233.00000000000000        6.6676417376963669E-003
   234.00000000000000        6.0601329518925919E-003
   235.00000000000000        5.4910611228771245E-003
   236.00000000000000        4.9591296840916363E-003
   237.00000000000000        4.4630446574930489E-003
   238.00000000000000        4.0015149422975866E-003
   239.00000000000000        3.5732525882289051E-003
   240.00000000000000        3.1769730538091161E-003
   241.00000000000000        2.8113954502207916E-003
   242.00000000000000        2.4752427712559826E-003
   243.00000000000000        2.1672421098587521E-003
   244.00000000000000        1.8861248617554397E-003
   245.00000000000000        1.6306269166558589E-003
   246.00000000000000        1.3994888374984466E-003
   247.00000000000000        1.1914560281999725E-003
   248.00000000000000        1.0052788903595878E-003
   249.00000000000000        8.3971296935655146E-004
   250.00000000000000        6.9351909026914868E-004
   251.00000000000000        5.6546348403142366E-004
   252.00000000000000        4.5431790423384197E-004
   253.00000000000000        3.5885973496237861E-004
   254.00000000000000        2.7787209006060266E-004
   255.00000000000000        2.1014390418817064E-004
   256.00000000000000        1.5447001603831396E-004
   257.00000000000000        1.0965124406743376E-004
   258.00000000000000        7.4494455078459435E-005
   259.00000000000000        4.7812625990353868E-005
   260.00000000000000        2.8424899115625656E-005
   261.00000000000000        1.5156631257983233E-005
   262.00000000000000        6.8394369326242047E-006
   263.00000000000000        2.3112260018616055E-006
   264.00000000000000        4.1623600960751432E-007
   265.00000000000000        5.0594888507248645E-009
   266.00000000000000       -0.0000000000000000     
   267.00000000000000       -0.0000000000000000     
   268.00000000000000       -0.0000000000000000     
   269.00000000000000       -0.0000000000000000     
   270.00000000000000       -0.0000000000000000     
   271.00000000000000       -0.0000000000000000     
   272.00000000000000       -0.0000000000000000     
   273.00000000000000       -0.0000000000000000     
   274.00000000000000       -0.0000000000000000     
   275.00000000000000       -0.0000000000000000     
   276.00000000000000       -0.0000000000000000     
   277.00000000000000       -0.0000000000000000     
   278.00000000000000       -0.0000000000000000     
   279.00000000000000       -0.0000000000000000     
   280.00000000000000       -0.0000000000000000     
   281.00000000000000       -0.0000000000000000     
   282.00000000000000       -0.0000000000000000     
   283.00000000000000       -0.0000000000000000     
   284.00000000000000       -0.0000000000000000     
   285.00000000000000       -0.0000000000000000     
   286.00000000000000       -0.0000000000000000     
   287.00000000000000       -0.0000000000000000     
   288.00000000000000       -0.0000000000000000     
   289.00000000000000       -0.0000000000000000     
   290.00000000000000       -0.0000000000000000     
   291.00000000000000       -0.0000000000000000     
   292.00000000000000       -0.0000000000000000     
   293.00000000000000       -0.0000000000000000     
   294.00000000000000       -0.0000000000000000     
   295.00000000000000       -0.0000000000000000     
   296.00000000000000       -0.0000000000000000     
   297.00000000000000       -0.0000000000000000     
   298.00000000000000       -0.0000000000000000     
   299.00000000000000       -0.0000000000000000     
   300.00000000000000       -0.0000000000000000     
   301.00000000000000       -0.0000000000000000     
   302.00000000000000       -0.0000000000000000     
   303.00000000000000       -0.0000000000000000     
   304.00000000000000       -0.0000000000000000     
   305.00000000000000       -0.0000000000000000     
   306.00000000000000       -0.0000000000000000     
   307.00000000000000       -0.0000000000000000     
   308.00000000000000       -0.0000000000000000     
   309.00000000000000       -0.0000000000000000     
   310.00000000000000       -0.0000000000000000     
   311.00000000000000       -0.0000000000000000     
   312.00000000000000       -0.0000000000000000     
   313.00000000000000       -0.0000000000000000     
   314.00000000000000       -0.0000000000000000     
   315.00000000000000       -0.0000000000000000     
   316.00000000000000       -0.0000000000000000     
   317.00000000000000       -0.0000000000000000     
   318.00000000000000       -0.0000000000000000     
   319.00000000000000       -0.0000000000000000     
   320.00000000000000       -0.0000000000000000     
   321.00000000000000       -0.0000000000000000     
   322.00000000000000       -0.0000000000000000     
   323.00000000000000       -0.0000000000000000     
   324.00000000000000       -0.0000000000000000     
   325.00000000000000       -0.0000000000000000     
   326.00000000000000       -0.0000000000000000     
   327.00000000000000       -0.0000000000000000     
   328.00000000000000       -0.0000000000000000     
   329.00000000000000       -0.0000000000000000     
   330.00000000000000       -0.0000000000000000     
   331.00000000000000       -0.0000000000000000     
   332.00000000000000       -0.0000000000000000     
   333.00000000000000       -0.0000000000000000     
   334.00000000000000       -0.0000000000000000     
   335.00000000000000       -0.0000000000000000     
   336.00000000000000       -0.0000000000000000     
   337.00000000000000       -0.0000000000000000     
   338.00000000000000       -0.0000000000000000     
   339.00000000000000       -0.0000000000000000     
   340.00000000000000       -0.0000000000000000     
   341.00000000000000       -0.0000000000000000     
   342.00000000000000       -0.0000000000000000     
   343.00000000000000       -0.0000000000000000     
   344.00000000000000       -0.0000000000000000     
   345.00000000000000       -0.0000000000000000     
   346.00000000000000       -0.0000000000000000     
   347.00000000000000       -0.0000000000000000     
   348.00000000000000       -0.0000000000000000     
   349.00000000000000       -0.0000000000000000     
   350.00000000000000       -0.0000000000000000     
   351.00000000000000       -0.0000000000000000     
   352.00000000000000       -0.0000000000000000     
   353.00000000000000       -0.0000000000000000     
   354.00000000000000       -0.0000000000000000     
   355.00000000000000       -0.0000000000000000     
   356.00000000000000       -0.0000000000000000     
   357.00000000000000       -0.0000000000000000     
   358.00000000000000       -0.0000000000000000     
   359.00000000000000       -0.0000000000000000     
   360.00000000000000       -0.0000000000000000     
   361.00000000000000       -0.0000000000000000     
   362.00000000000000       -0.0000000000000000     
   363.00000000000000       -0.0000000000000000     
   364.00000000000000       -0.0000000000000000     
   365.00000000000000       -0.0000000000000000     
   366.00000000000000       -0.0000000000000000     
   367.00000000000000       -0.0000000000000000     
   368.00000000000000       -0.0000000000000000     
   369.00000000000000       -0.0000000000000000     
   370.00000000000000       -0.0000000000000000     
   371.00000000000000       -0.0000000000000000     
   372.00000000000000       -0.0000000000000000     
   373.00000000000000       -0.0000000000000000     
   374.00000000000000       -0.0000000000000000     
   375.00000000000000       -0.0000000000000000     
   376.00000000000000       -0.0000000000000000     
