# Recoil energy (kev)        Event rate (events/gev)
   1.0000000000000000        3919.2211904753822     
   2.0000000000000000        7639.9377674143389     
   3.0000000000000000        11167.475496136436     
   4.0000000000000000        14507.193007328226     
   5.0000000000000000        17664.464918441936     
   6.0000000000000000        20644.666588901637     
   7.0000000000000000        23453.163373598036     
   8.0000000000000000        26095.306956496912     
   9.0000000000000000        28576.402850950482     
   10.000000000000000        30901.734290193624     
   11.000000000000000        33076.519674696399     
   12.000000000000000        35105.927395602339     
   13.000000000000000        36995.062174462539     
   14.000000000000000        38748.956497412029     
   15.000000000000000        40372.566397274633     
   16.000000000000000        41870.765512387836     
   17.000000000000000        43248.361456589577     
   18.000000000000000        44510.015742246767     
   19.000000000000000        45660.374997879684     
   20.000000000000000        46703.944762023610     
   21.000000000000000        47645.122580390635     
   22.000000000000000        48488.242556589925     
   23.000000000000000        49237.543151016653     
   24.000000000000000        49897.039472837438     
   25.000000000000000        50470.837569801297     
   26.000000000000000        50962.802373117149     
   27.000000000000000        51376.735828146135     
   28.000000000000000        51716.346564888379     
   29.000000000000000        51985.171422938947     
   30.000000000000000        52186.745392463148     
   31.000000000000000        52324.433973352447     
   32.000000000000000        52401.503583766113     
   33.000000000000000        52421.130128435063     
   34.000000000000000        52386.430250408179     
   35.000000000000000        52300.327331438471     
   36.000000000000000        52165.667237784852     
   37.000000000000000        51985.292546517689     
   38.000000000000000        51761.833760744383     
   39.000000000000000        51497.947591695032     
   40.000000000000000        51196.066769917146     
   41.000000000000000        50858.586922823109     
   42.000000000000000        50487.872154395198     
   43.000000000000000        50086.096755498234     
   44.000000000000000        49655.432148398657     
   45.000000000000000        49197.926130827836     
   46.000000000000000        48715.533464934604     
   47.000000000000000        48210.130366763224     
   48.000000000000000        47683.516422037210     
   49.000000000000000        47137.416512863289     
   50.000000000000000        46573.482750636409     
   51.000000000000000        45993.296410756942     
   52.000000000000000        45398.369865083405     
   53.000000000000000        44790.148508351129     
   54.000000000000000        44170.012675082515     
   55.000000000000000        43539.279543793811     
   56.000000000000000        42899.205025574935     
   57.000000000000000        42250.985634375131     
   58.000000000000000        41595.760336569212     
   59.000000000000000        40934.612377613077     
   60.000000000000000        40268.571083812196     
   61.000000000000000        39598.613637435366     
   62.000000000000000        38925.666823599073     
   63.000000000000000        38250.608747529317     
   64.000000000000000        37574.270520981343     
   65.000000000000000        36897.437916755451     
   66.000000000000000        36220.852990399173     
   67.000000000000000        35545.215668324956     
   68.000000000000000        34871.185301704398     
   69.000000000000000        34199.382185620401     
   70.000000000000000        33530.389043072981     
   71.000000000000000        32864.752473538094     
   72.000000000000000        32202.984365877426     
   73.000000000000000        31545.563275485925     
   74.000000000000000        30892.935765646140     
   75.000000000000000        30245.517713136887     
   76.000000000000000        29603.695578211024     
   77.000000000000000        28967.827639123443     
   78.000000000000000        28338.245191447855     
   79.000000000000000        27715.253712474521     
   80.000000000000000        27099.133991030401     
   81.000000000000000        26490.143223105631     
   82.000000000000000        25888.516073711267     
   83.000000000000000        25294.465705427243     
   84.000000000000000        24708.184774133446     
   85.000000000000000        24129.846392441719     
   86.000000000000000        23559.605061374488     
   87.000000000000000        22997.597570855596     
   88.000000000000000        22443.943869598108     
   89.000000000000000        21898.747904990065     
   90.000000000000000        21362.098433592382     
   91.000000000000000        20834.069802874834     
   92.000000000000000        20314.722704824580     
   93.000000000000000        19804.104902068077     
   94.000000000000000        19302.251927154350     
   95.000000000000000        18809.187755648632     
   96.000000000000000        18324.925453688433     
   97.000000000000000        17849.467800654438     
   98.000000000000000        17382.807887606818     
   99.000000000000000        16924.929692136331     
   100.00000000000000        16475.808630275209     
   101.00000000000000        16035.412086108643     
   102.00000000000000        15603.699919723016     
   103.00000000000000        15180.624954119196     
   104.00000000000000        14766.133441714039     
   105.00000000000000        14360.165511044192     
   106.00000000000000        13962.655594278247     
   107.00000000000000        13573.532836134873     
   108.00000000000000        13192.721484794329     
   109.00000000000000        12820.141265381964     
   110.00000000000000        12455.707736590848     
   111.00000000000000        12099.332631001493     
   112.00000000000000        11750.924179644204     
   113.00000000000000        11410.387421340596     
   114.00000000000000        11077.624497347251     
   115.00000000000000        10752.534931815017     
   116.00000000000000        10435.015898564574     
   117.00000000000000        10124.962474668324     
   118.00000000000000        9822.2678813159273     
   119.00000000000000        9526.8237124301031     
   120.00000000000000        9238.5201514867822     
   121.00000000000000        8957.2461769824895     
   122.00000000000000        8682.8897569802139     
   123.00000000000000        8415.3380331527351     
   124.00000000000000        8154.4774947322885     
   125.00000000000000        7900.1941427619577     
   126.00000000000000        7652.3736450352535     
   127.00000000000000        7410.9014820971151     
   128.00000000000000        7175.6630846698154     
   129.00000000000000        6946.5439628557506     
   130.00000000000000        6723.4298274587300     
   131.00000000000000        6506.2067037544075     
   132.00000000000000        6294.7610380304868     
   133.00000000000000        6088.9797972069682     
   134.00000000000000        5888.7505618366140     
   135.00000000000000        5693.9616127760801     
   136.00000000000000        5504.5020118085122     
   137.00000000000000        5320.2616764890327     
   138.00000000000000        5141.1314494750977     
   139.00000000000000        4967.0031625948850     
   140.00000000000000        4797.7696958980541     
   141.00000000000000        4633.3250319246363     
   142.00000000000000        4473.5643054188422     
   143.00000000000000        4318.3838487075855     
   144.00000000000000        4167.6812329542308     
   145.00000000000000        4021.3553054911054     
   146.00000000000000        3879.3062234264448     
   147.00000000000000        3741.4354837142264     
   148.00000000000000        3607.6459498679160     
   149.00000000000000        3477.8418754924719     
   150.00000000000000        3351.9289248020473     
   151.00000000000000        3229.8141902841953     
   152.00000000000000        3111.4062076651708     
   153.00000000000000        2996.6149683246208     
   154.00000000000000        2885.3519293018999     
   155.00000000000000        2777.5300210306227     
   156.00000000000000        2673.0636529322433     
   157.00000000000000        2571.8687169941181     
   158.00000000000000        2473.8625894521656     
   159.00000000000000        2378.9641306930707     
   160.00000000000000        2287.0936834862573     
   161.00000000000000        2198.1730696508594     
   162.00000000000000        2112.1255852583549     
   163.00000000000000        2028.8759944671065     
   164.00000000000000        1948.3505220808111     
   165.00000000000000        1870.4768449185117     
   166.00000000000000        1795.1840820800478     
   167.00000000000000        1722.4027841867921     
   168.00000000000000        1652.0649216738238     
   169.00000000000000        1584.1038722061865     
   170.00000000000000        1518.4544072883205     
   171.00000000000000        1455.0526781324322     
   172.00000000000000        1393.8362008484794     
   173.00000000000000        1334.7438410151665     
   174.00000000000000        1277.7157976885817     
   175.00000000000000        1222.6935869020813     
   176.00000000000000        1169.6200247084309     
   177.00000000000000        1118.4392098124695     
   178.00000000000000        1069.0965058400845     
   179.00000000000000        1021.5385232868407     
   180.00000000000000        975.71310118733231     
   181.00000000000000        931.56928854392277     
   182.00000000000000        889.05732555168572     
   183.00000000000000        848.12862465397768     
   184.00000000000000        808.73575146132021     
   185.00000000000000        770.83240556437295     
   186.00000000000000        734.37340126981144     
   187.00000000000000        699.31464828643675     
   188.00000000000000        665.61313238695163     
   189.00000000000000        633.22689606944971     
   190.00000000000000        602.11501924104562     
   191.00000000000000        572.23759994465229     
   192.00000000000000        543.55573514858372     
   193.00000000000000        516.03150161722772     
   194.00000000000000        489.62793687997015     
   195.00000000000000        464.30902031415314     
   196.00000000000000        440.03965435683352     
   197.00000000000000        416.78564585900835     
   198.00000000000000        394.51368759488781     
   199.00000000000000        373.19133993786352     
   200.00000000000000        352.78701271390139     
   201.00000000000000        333.26994724207827     
   202.00000000000000        314.61019857131788     
   203.00000000000000        296.77861792143466     
   204.00000000000000        279.74683533588069     
   205.00000000000000        263.48724255288948     
   206.00000000000000        247.97297610100483     
   207.00000000000000        233.17790062432150     
   208.00000000000000        219.07659244217558     
   209.00000000000000        205.64432334745453     
   210.00000000000000        192.85704464708331     
   211.00000000000000        180.69137144780950     
   212.00000000000000        169.12456718986604     
   213.00000000000000        158.13452843064638     
   214.00000000000000        147.69976988008679     
   215.00000000000000        137.79940968906845     
   216.00000000000000        128.41315499172634     
   217.00000000000000        119.52128770222903     
   218.00000000000000        111.10465056623168     
   219.00000000000000        103.14463346690324     
   220.00000000000000        95.623159985132986     
   221.00000000000000        88.522674213221535     
   222.00000000000000        81.826127821140659     
   223.00000000000000        75.516967374175223     
   224.00000000000000        69.579121900552380     
   225.00000000000000        63.996990707457201     
   226.00000000000000        58.755431443620481     
   227.00000000000000        53.839748406531164     
   228.00000000000000        49.235681092105544     
   229.00000000000000        44.929392984540144     
   230.00000000000000        40.907460583918720     
   231.00000000000000        37.156862669016895     
   232.00000000000000        33.664969792634388     
   233.00000000000000        30.419534006687698     
   234.00000000000000        27.408678814186832     
   235.00000000000000        24.620889345153799     
   236.00000000000000        22.045002753445409     
   237.00000000000000        19.670198831394032     
   238.00000000000000        17.485990839107451     
   239.00000000000000        15.482216545223338     
   240.00000000000000        13.649029475869900     
   241.00000000000000        11.976890368547268     
   242.00000000000000        10.456558827608948     
   243.00000000000000        9.0790851780040729     
   244.00000000000000        7.8358025139173950     
   245.00000000000000        6.7183189389302234     
   246.00000000000000        5.7185099943211570     
   247.00000000000000        4.8285112721157413     
   248.00000000000000        4.0407112094958872     
   249.00000000000000        3.3477440611870266     
   250.00000000000000        2.7424830464458054     
   251.00000000000000        2.2180336672834686     
   252.00000000000000        1.7677271945767923     
   253.00000000000000        1.3851143187334929     
   254.00000000000000        1.0639589616033314     
   255.00000000000000       0.79823224634775580     
   256.00000000000000       0.58210662200598073     
   257.00000000000000       0.40995013952735909     
   258.00000000000000       0.27632087606590128     
   259.00000000000000       0.17596150436848204     
   260.00000000000000       0.10379400412042565     
   261.00000000000000        5.4914512148366380E-002
   262.00000000000000        2.4588308417624390E-002
   263.00000000000000        8.2449347988811893E-003
   264.00000000000000        1.4734436192742602E-003
   265.00000000000000        1.7773053067575871E-005
   266.00000000000000       -0.0000000000000000     
   267.00000000000000       -0.0000000000000000     
   268.00000000000000       -0.0000000000000000     
   269.00000000000000       -0.0000000000000000     
   270.00000000000000       -0.0000000000000000     
   271.00000000000000       -0.0000000000000000     
   272.00000000000000       -0.0000000000000000     
   273.00000000000000       -0.0000000000000000     
   274.00000000000000       -0.0000000000000000     
   275.00000000000000       -0.0000000000000000     
   276.00000000000000       -0.0000000000000000     
   277.00000000000000       -0.0000000000000000     
   278.00000000000000       -0.0000000000000000     
   279.00000000000000       -0.0000000000000000     
   280.00000000000000       -0.0000000000000000     
   281.00000000000000       -0.0000000000000000     
   282.00000000000000       -0.0000000000000000     
   283.00000000000000       -0.0000000000000000     
   284.00000000000000       -0.0000000000000000     
   285.00000000000000       -0.0000000000000000     
   286.00000000000000       -0.0000000000000000     
   287.00000000000000       -0.0000000000000000     
   288.00000000000000       -0.0000000000000000     
   289.00000000000000       -0.0000000000000000     
   290.00000000000000       -0.0000000000000000     
   291.00000000000000       -0.0000000000000000     
   292.00000000000000       -0.0000000000000000     
   293.00000000000000       -0.0000000000000000     
   294.00000000000000       -0.0000000000000000     
   295.00000000000000       -0.0000000000000000     
   296.00000000000000       -0.0000000000000000     
   297.00000000000000       -0.0000000000000000     
   298.00000000000000       -0.0000000000000000     
   299.00000000000000       -0.0000000000000000     
   300.00000000000000       -0.0000000000000000     
   301.00000000000000       -0.0000000000000000     
   302.00000000000000       -0.0000000000000000     
   303.00000000000000       -0.0000000000000000     
   304.00000000000000       -0.0000000000000000     
   305.00000000000000       -0.0000000000000000     
   306.00000000000000       -0.0000000000000000     
   307.00000000000000       -0.0000000000000000     
   308.00000000000000       -0.0000000000000000     
   309.00000000000000       -0.0000000000000000     
   310.00000000000000       -0.0000000000000000     
   311.00000000000000       -0.0000000000000000     
   312.00000000000000       -0.0000000000000000     
   313.00000000000000       -0.0000000000000000     
   314.00000000000000       -0.0000000000000000     
   315.00000000000000       -0.0000000000000000     
   316.00000000000000       -0.0000000000000000     
   317.00000000000000       -0.0000000000000000     
   318.00000000000000       -0.0000000000000000     
   319.00000000000000       -0.0000000000000000     
   320.00000000000000       -0.0000000000000000     
   321.00000000000000       -0.0000000000000000     
   322.00000000000000       -0.0000000000000000     
   323.00000000000000       -0.0000000000000000     
   324.00000000000000       -0.0000000000000000     
   325.00000000000000       -0.0000000000000000     
   326.00000000000000       -0.0000000000000000     
   327.00000000000000       -0.0000000000000000     
   328.00000000000000       -0.0000000000000000     
   329.00000000000000       -0.0000000000000000     
   330.00000000000000       -0.0000000000000000     
   331.00000000000000       -0.0000000000000000     
   332.00000000000000       -0.0000000000000000     
   333.00000000000000       -0.0000000000000000     
   334.00000000000000       -0.0000000000000000     
   335.00000000000000       -0.0000000000000000     
   336.00000000000000       -0.0000000000000000     
   337.00000000000000       -0.0000000000000000     
   338.00000000000000       -0.0000000000000000     
   339.00000000000000       -0.0000000000000000     
   340.00000000000000       -0.0000000000000000     
   341.00000000000000       -0.0000000000000000     
   342.00000000000000       -0.0000000000000000     
   343.00000000000000       -0.0000000000000000     
   344.00000000000000       -0.0000000000000000     
   345.00000000000000       -0.0000000000000000     
   346.00000000000000       -0.0000000000000000     
   347.00000000000000       -0.0000000000000000     
   348.00000000000000       -0.0000000000000000     
   349.00000000000000       -0.0000000000000000     
   350.00000000000000       -0.0000000000000000     
   351.00000000000000       -0.0000000000000000     
   352.00000000000000       -0.0000000000000000     
   353.00000000000000       -0.0000000000000000     
   354.00000000000000       -0.0000000000000000     
   355.00000000000000       -0.0000000000000000     
   356.00000000000000       -0.0000000000000000     
   357.00000000000000       -0.0000000000000000     
   358.00000000000000       -0.0000000000000000     
   359.00000000000000       -0.0000000000000000     
   360.00000000000000       -0.0000000000000000     
   361.00000000000000       -0.0000000000000000     
   362.00000000000000       -0.0000000000000000     
   363.00000000000000       -0.0000000000000000     
   364.00000000000000       -0.0000000000000000     
   365.00000000000000       -0.0000000000000000     
   366.00000000000000       -0.0000000000000000     
   367.00000000000000       -0.0000000000000000     
   368.00000000000000       -0.0000000000000000     
   369.00000000000000       -0.0000000000000000     
   370.00000000000000       -0.0000000000000000     
   371.00000000000000       -0.0000000000000000     
   372.00000000000000       -0.0000000000000000     
   373.00000000000000       -0.0000000000000000     
   374.00000000000000       -0.0000000000000000     
   375.00000000000000       -0.0000000000000000     
   376.00000000000000       -0.0000000000000000     
