# Recoil energy (kev)        Event rate (events/gev)
   1.0000000000000000        385439.28413485608     
   2.0000000000000000        750469.84585811070     
   3.0000000000000000        1095684.6989954840     
   4.0000000000000000        1421676.4249203580     
   5.0000000000000000        1729036.6557439021     
   6.0000000000000000        2018354.5760552355     
   7.0000000000000000        2290215.8745203521     
   8.0000000000000000        2545202.3935050713     
   9.0000000000000000        2783888.9723262186     
   10.000000000000000        3006845.8000194281     
   11.000000000000000        3214634.2940477077     
   12.000000000000000        3407808.5781476628     
   13.000000000000000        3586914.1881871172     
   14.000000000000000        3752487.2808283046     
   15.000000000000000        3905054.2686610660     
   16.000000000000000        4045131.2917461563     
   17.000000000000000        4173225.8461488802     
   18.000000000000000        4289829.1056426149     
   19.000000000000000        4395428.6388120772     
   20.000000000000000        4490496.2844270226     
   21.000000000000000        4575491.4125139043     
   22.000000000000000        4650865.2610590076     
   23.000000000000000        4717057.8888586843     
   24.000000000000000        4774486.0118757980     
   25.000000000000000        4823573.1702720216     
   26.000000000000000        4864717.9803735800     
   27.000000000000000        4898311.2578618098     
   28.000000000000000        4924733.1669569239     
   29.000000000000000        4944345.8113785153     
   30.000000000000000        4957509.4778960440     
   31.000000000000000        4964566.7325287610     
   32.000000000000000        4965849.1913337857     
   33.000000000000000        4961678.3893242273     
   34.000000000000000        4952368.7878209576     
   35.000000000000000        4938215.1571160331     
   36.000000000000000        4919503.6038770238     
   37.000000000000000        4896518.6079143398     
   38.000000000000000        4869523.3833208308     
   39.000000000000000        4838782.3902203171     
   40.000000000000000        4804537.8412764706     
   41.000000000000000        4767027.3472423460     
   42.000000000000000        4726484.4612881001     
   43.000000000000000        4683123.8974429006     
   44.000000000000000        4637159.0982857291     
   45.000000000000000        4588790.9740501214     
   46.000000000000000        4538210.8237050138     
   47.000000000000000        4485601.7370033283     
   48.000000000000000        4431138.8180780346     
   49.000000000000000        4374989.4087017234     
   50.000000000000000        4317313.3107648659     
   51.000000000000000        4258263.0075623021     
   52.000000000000000        4197983.8835107470     
   53.000000000000000        4136614.4419521475     
   54.000000000000000        4074286.5207281564     
   55.000000000000000        4011125.5052403132     
   56.000000000000000        3947250.5387380277     
   57.000000000000000        3882774.7296029585     
   58.000000000000000        3817805.3554228791     
   59.000000000000000        3752444.0636718129     
   60.000000000000000        3686787.0688348957     
   61.000000000000000        3620925.3458373081     
   62.000000000000000        3554944.8196557378     
   63.000000000000000        3488926.5510090590     
   64.000000000000000        3422946.9180415990     
   65.000000000000000        3357077.7939282469     
   66.000000000000000        3291386.7203449947     
   67.000000000000000        3225937.0767623298     
   68.000000000000000        3160788.2455311092     
   69.000000000000000        3095995.7727423939     
   70.000000000000000        3031611.5248531802     
   71.000000000000000        2967683.8410799368     
   72.000000000000000        2904257.6815707786     
   73.000000000000000        2841374.7713753427     
   74.000000000000000        2779073.7402390200     
   75.000000000000000        2717390.2582550873     
   76.000000000000000        2656357.1674142699     
   77.000000000000000        2596004.6090972046     
   78.000000000000000        2536360.1475600856     
   79.000000000000000        2477448.8894683784     
   80.000000000000000        2419293.5995376101     
   81.000000000000000        2361914.8123436482     
   82.000000000000000        2305330.9403681839     
   83.000000000000000        2249558.3783477950     
   84.000000000000000        2194611.6039973870     
   85.000000000000000        2140503.2751807598     
   86.000000000000000        2087244.3236028193     
   87.000000000000000        2034844.0450993213     
   88.000000000000000        1983310.1866011703     
   89.000000000000000        1932649.0298511023     
   90.000000000000000        1882865.4719512665     
   91.000000000000000        1833963.1028206276     
   92.000000000000000        1785944.2796412541     
   93.000000000000000        1738810.1983725929     
   94.000000000000000        1692560.9624127212     
   95.000000000000000        1647195.6484852256     
   96.000000000000000        1602712.3698298382     
   97.000000000000000        1559108.3367745073     
   98.000000000000000        1516379.9147657426     
   99.000000000000000        1474522.6799333878     
   100.00000000000000        1433531.4722649851     
   101.00000000000000        1393400.4464639111     
   102.00000000000000        1354123.1205644771     
   103.00000000000000        1315692.4223759326     
   104.00000000000000        1278100.7338262135     
   105.00000000000000        1241339.9332750137     
   106.00000000000000        1205401.4358643810     
   107.00000000000000        1170276.2319738551     
   108.00000000000000        1135954.9238456343     
   109.00000000000000        1102427.7604440448     
   110.00000000000000        1069684.6706119892     
   111.00000000000000        1037715.2945857726     
   112.00000000000000        1006509.0139281591     
   113.00000000000000        976054.97993813525     
   114.00000000000000        946342.14059432282     
   115.00000000000000        917359.26608760154     
   116.00000000000000        889094.97299697308     
   117.00000000000000        861537.74716132937     
   118.00000000000000        834675.96529822913     
   119.00000000000000        808497.91541949206     
   120.00000000000000        782991.81609185867     
   121.00000000000000        758145.83458967030     
   122.00000000000000        733948.10398504452     
   123.00000000000000        710386.73921968893     
   124.00000000000000        687449.85220117460     
   125.00000000000000        665125.56596501870     
   126.00000000000000        643402.02794281556     
   127.00000000000000        622267.42237516725     
   128.00000000000000        601709.98190701648     
   129.00000000000000        581717.99840169901     
   130.00000000000000        562279.83300881216     
   131.00000000000000        543383.92551979655     
   132.00000000000000        525018.80304398341     
   133.00000000000000        507173.08803667827     
   134.00000000000000        489835.50570977130     
   135.00000000000000        472994.89085423673     
   136.00000000000000        456640.19410285389     
   137.00000000000000        440760.48766042606     
   138.00000000000000        425344.97052775230     
   139.00000000000000        410382.97324463708     
   140.00000000000000        395863.96217627329     
   141.00000000000000        381777.54336637788     
   142.00000000000000        368113.46597955067     
   143.00000000000000        354861.62535448559     
   144.00000000000000        342012.06568876165     
   145.00000000000000        329554.98237513780     
   146.00000000000000        317480.72400845645     
   147.00000000000000        305779.79408150568     
   148.00000000000000        294442.85238738835     
   149.00000000000000        283460.71614526422     
   150.00000000000000        272824.36086558102     
   151.00000000000000        262524.92097025446     
   152.00000000000000        252553.69018256615     
   153.00000000000000        242902.12170093699     
   154.00000000000000        233561.82817007764     
   155.00000000000000        224524.58146245437     
   156.00000000000000        215782.31228240175     
   157.00000000000000        207327.10960467567     
   158.00000000000000        199151.21995868618     
   159.00000000000000        191247.04656913813     
   160.00000000000000        183607.14836330590     
   161.00000000000000        176224.23885469401     
   162.00000000000000        169091.18491234869     
   163.00000000000000        162201.00542465804     
   164.00000000000000        155546.86986604935     
   165.00000000000000        149122.09677455877     
   166.00000000000000        142920.15214787013     
   167.00000000000000        136934.64776502963     
   168.00000000000000        131159.33944066678     
   169.00000000000000        125588.12521821597     
   170.00000000000000        120215.04350828276     
   171.00000000000000        115034.27117796880     
   172.00000000000000        110040.12159667411     
   173.00000000000000        105227.04264357872     
   174.00000000000000        100589.61468172801     
   175.00000000000000        96122.548503369733     
   176.00000000000000        91820.683250924340     
   177.00000000000000        87678.984317725510     
   178.00000000000000        83692.541232414529     
   179.00000000000000        79856.565530652500     
   180.00000000000000        76166.388617592645     
   181.00000000000000        72617.459624330368     
   182.00000000000000        69205.343261373724     
   183.00000000000000        65925.717671953593     
   184.00000000000000        62774.372287834085     
   185.00000000000000        59747.205690097115     
   186.00000000000000        56840.223477206622     
   187.00000000000000        54049.536142508572     
   188.00000000000000        51371.356963157181     
   189.00000000000000        48801.999902327785     
   190.00000000000000        46337.877526429816     
   191.00000000000000        43975.498938904770     
   192.00000000000000        41711.467732073434     
   193.00000000000000        39542.479958371230     
   194.00000000000000        37465.322122209647     
   195.00000000000000        35476.869193583152     
   196.00000000000000        33574.082644447233     
   197.00000000000000        31754.008508798197     
   198.00000000000000        30013.775467290179     
   199.00000000000000        28350.592957141558     
   200.00000000000000        26761.749308006281     
   201.00000000000000        25244.609904396613     
   202.00000000000000        23796.615375187335     
   203.00000000000000        22415.279810651042     
   204.00000000000000        21098.189007413730     
   205.00000000000000        19842.998741660860     
   206.00000000000000        18647.433070864947     
   207.00000000000000        17509.282664251365     
   208.00000000000000        16426.403162169980     
   209.00000000000000        15396.713564494556     
   210.00000000000000        14418.194648121000     
   211.00000000000000        13488.887413602381     
   212.00000000000000        12606.891560913366     
   213.00000000000000        11770.363994303301     
   214.00000000000000        10977.517356161741     
   215.00000000000000        10226.618589791366     
   216.00000000000000        9515.9875309498348     
   217.00000000000000        8843.9955279987953     
   218.00000000000000        8209.0640904703650     
   219.00000000000000        7609.6635658393861     
   220.00000000000000        7044.3118442687855     
   221.00000000000000        6511.5730910731154     
   222.00000000000000        6010.0565066305071     
   223.00000000000000        5538.4151134541708     
   224.00000000000000        5095.3445701206647     
   225.00000000000000        4679.5820117384292     
   226.00000000000000        4289.9049166262212     
   227.00000000000000        3925.1299988632154     
   228.00000000000000        3584.1121263581904     
   229.00000000000000        3265.7432640798211     
   230.00000000000000        2968.9514420810583     
   231.00000000000000        2692.6997479433835     
   232.00000000000000        2435.9853432612431     
   233.00000000000000        2197.8385037823568     
   234.00000000000000        1977.3216828142829     
   235.00000000000000        1773.5285975056674     
   236.00000000000000        1585.5833376065041     
   237.00000000000000        1412.6394963109981     
   238.00000000000000        1253.8793227843714     
   239.00000000000000        1108.5128959745955     
   240.00000000000000        975.77731930985965     
   241.00000000000000        854.93593588296994     
   242.00000000000000        745.27756372436329     
   243.00000000000000        646.11575076723443     
   244.00000000000000        556.78804910956194     
   245.00000000000000        476.65530818003788     
   246.00000000000000        405.10098641761078     
   247.00000000000000        341.53048107684339     
   248.00000000000000        285.37047577445156     
   249.00000000000000        236.06830539604340     
   250.00000000000000        193.09133798546966     
   251.00000000000000        155.92637324318503     
   252.00000000000000        124.07905726423040     
   253.00000000000000        97.073313150576695     
   254.00000000000000        74.450787137288586     
   255.00000000000000        55.770309876497315     
   256.00000000000000        40.607372527901468     
   257.00000000000000        28.553617309705178     
   258.00000000000000        19.216342168636690     
   259.00000000000000        12.218019233079326     
   260.00000000000000        7.1958267184395694     
   261.00000000000000        3.8011939592251829     
   262.00000000000000        1.6993592476888979     
   263.00000000000000       0.56894016425290561     
   264.00000000000000       0.10151609043970802     
   265.00000000000000        1.2226004829772900E-003
   266.00000000000000       -0.0000000000000000     
   267.00000000000000       -0.0000000000000000     
   268.00000000000000       -0.0000000000000000     
   269.00000000000000       -0.0000000000000000     
   270.00000000000000       -0.0000000000000000     
   271.00000000000000       -0.0000000000000000     
   272.00000000000000       -0.0000000000000000     
   273.00000000000000       -0.0000000000000000     
   274.00000000000000       -0.0000000000000000     
   275.00000000000000       -0.0000000000000000     
   276.00000000000000       -0.0000000000000000     
   277.00000000000000       -0.0000000000000000     
   278.00000000000000       -0.0000000000000000     
   279.00000000000000       -0.0000000000000000     
   280.00000000000000       -0.0000000000000000     
   281.00000000000000       -0.0000000000000000     
   282.00000000000000       -0.0000000000000000     
   283.00000000000000       -0.0000000000000000     
   284.00000000000000       -0.0000000000000000     
   285.00000000000000       -0.0000000000000000     
   286.00000000000000       -0.0000000000000000     
   287.00000000000000       -0.0000000000000000     
   288.00000000000000       -0.0000000000000000     
   289.00000000000000       -0.0000000000000000     
   290.00000000000000       -0.0000000000000000     
   291.00000000000000       -0.0000000000000000     
   292.00000000000000       -0.0000000000000000     
   293.00000000000000       -0.0000000000000000     
   294.00000000000000       -0.0000000000000000     
   295.00000000000000       -0.0000000000000000     
   296.00000000000000       -0.0000000000000000     
   297.00000000000000       -0.0000000000000000     
   298.00000000000000       -0.0000000000000000     
   299.00000000000000       -0.0000000000000000     
   300.00000000000000       -0.0000000000000000     
   301.00000000000000       -0.0000000000000000     
   302.00000000000000       -0.0000000000000000     
   303.00000000000000       -0.0000000000000000     
   304.00000000000000       -0.0000000000000000     
   305.00000000000000       -0.0000000000000000     
   306.00000000000000       -0.0000000000000000     
   307.00000000000000       -0.0000000000000000     
   308.00000000000000       -0.0000000000000000     
   309.00000000000000       -0.0000000000000000     
   310.00000000000000       -0.0000000000000000     
   311.00000000000000       -0.0000000000000000     
   312.00000000000000       -0.0000000000000000     
   313.00000000000000       -0.0000000000000000     
   314.00000000000000       -0.0000000000000000     
   315.00000000000000       -0.0000000000000000     
   316.00000000000000       -0.0000000000000000     
   317.00000000000000       -0.0000000000000000     
   318.00000000000000       -0.0000000000000000     
   319.00000000000000       -0.0000000000000000     
   320.00000000000000       -0.0000000000000000     
   321.00000000000000       -0.0000000000000000     
   322.00000000000000       -0.0000000000000000     
   323.00000000000000       -0.0000000000000000     
   324.00000000000000       -0.0000000000000000     
   325.00000000000000       -0.0000000000000000     
   326.00000000000000       -0.0000000000000000     
   327.00000000000000       -0.0000000000000000     
   328.00000000000000       -0.0000000000000000     
   329.00000000000000       -0.0000000000000000     
   330.00000000000000       -0.0000000000000000     
   331.00000000000000       -0.0000000000000000     
   332.00000000000000       -0.0000000000000000     
   333.00000000000000       -0.0000000000000000     
   334.00000000000000       -0.0000000000000000     
   335.00000000000000       -0.0000000000000000     
   336.00000000000000       -0.0000000000000000     
   337.00000000000000       -0.0000000000000000     
   338.00000000000000       -0.0000000000000000     
   339.00000000000000       -0.0000000000000000     
   340.00000000000000       -0.0000000000000000     
   341.00000000000000       -0.0000000000000000     
   342.00000000000000       -0.0000000000000000     
   343.00000000000000       -0.0000000000000000     
   344.00000000000000       -0.0000000000000000     
   345.00000000000000       -0.0000000000000000     
   346.00000000000000       -0.0000000000000000     
   347.00000000000000       -0.0000000000000000     
   348.00000000000000       -0.0000000000000000     
   349.00000000000000       -0.0000000000000000     
   350.00000000000000       -0.0000000000000000     
   351.00000000000000       -0.0000000000000000     
   352.00000000000000       -0.0000000000000000     
   353.00000000000000       -0.0000000000000000     
   354.00000000000000       -0.0000000000000000     
   355.00000000000000       -0.0000000000000000     
   356.00000000000000       -0.0000000000000000     
   357.00000000000000       -0.0000000000000000     
   358.00000000000000       -0.0000000000000000     
   359.00000000000000       -0.0000000000000000     
   360.00000000000000       -0.0000000000000000     
   361.00000000000000       -0.0000000000000000     
   362.00000000000000       -0.0000000000000000     
   363.00000000000000       -0.0000000000000000     
   364.00000000000000       -0.0000000000000000     
   365.00000000000000       -0.0000000000000000     
   366.00000000000000       -0.0000000000000000     
   367.00000000000000       -0.0000000000000000     
   368.00000000000000       -0.0000000000000000     
   369.00000000000000       -0.0000000000000000     
   370.00000000000000       -0.0000000000000000     
   371.00000000000000       -0.0000000000000000     
   372.00000000000000       -0.0000000000000000     
   373.00000000000000       -0.0000000000000000     
   374.00000000000000       -0.0000000000000000     
   375.00000000000000       -0.0000000000000000     
   376.00000000000000       -0.0000000000000000     
