# Recoil energy (kev)        Event rate (events/gev)
   1.0000000000000000        3.0553417254075072E-015
   1.1000000000000001        4.0498085046409015E-015
   1.2000000000000000        5.2359299671010623E-015
   1.3000000000000000        6.6293482727785084E-015
   1.3999999999999999        8.2454167998653379E-015
   1.5000000000000000        1.0099202134193388E-014
   1.6000000000000001        1.2205486068463182E-014
   1.7000000000000000        1.4578767610754204E-014
   1.8000000000000000        1.7233265001823312E-014
   1.9000000000000001        2.0182917740711294E-014
   2.0000000000000000        2.3441388618189114E-014
   2.1000000000000001        2.7022065757586781E-014
   2.2000000000000002        3.0938064662558147E-014
   2.3000000000000003        3.5202230271342435E-014
   2.3999999999999999        3.9827139017096348E-014
   2.5000000000000000        4.4825100893871584E-014
   2.6000000000000001        5.0208161527830919E-014
   2.7000000000000002        5.5988104253295692E-014
   2.8000000000000003        6.2176452193226886E-014
   2.8999999999999999        6.8784470343754383E-014
   3.0000000000000000        7.5823167662368438E-014
   3.1000000000000001        8.3303299159403522E-014
   3.2000000000000002        9.1235367992441172E-014
   3.3000000000000003        9.9629627563276737E-014
   3.4000000000000004        1.0849608361709221E-013
   3.5000000000000000        1.1784449634349039E-013
   3.6000000000000001        1.2768438247904685E-013
   3.7000000000000002        1.3802501741104886E-013
   3.8000000000000003        1.4887543728209101E-013
   3.9000000000000004        1.6024444109520663E-013
   4.0000000000000000        1.7214059281921716E-013
   4.1000000000000005        1.8457222349399651E-013
   4.2000000000000002        1.9754743333533849E-013
   4.2999999999999998        2.1107409383913592E-013
   4.4000000000000004        2.2515984988457802E-013
   4.5000000000000000        2.3981212183607392E-013
   4.6000000000000005        2.5503810764364031E-013
   4.7000000000000002        2.7084478494145042E-013
   4.7999999999999998        2.8723891314430248E-013
   4.9000000000000004        3.0422703554172307E-013
   5.0000000000000000        3.2181548138946198E-013
   5.1000000000000005        3.4001036799811498E-013
   5.2000000000000002        3.5881760281863344E-013
   5.2999999999999998        3.7824288552447067E-013
   5.4000000000000004        3.9829171009013247E-013
   5.5000000000000000        4.1896936686590331E-013
   5.6000000000000005        4.4028094464850975E-013
   5.7000000000000002        4.6223133274750034E-013
   5.8000000000000007        4.8482522304713506E-013
   5.9000000000000004        5.0806711206355825E-013
   6.0000000000000000        5.3196130299704795E-013
   6.1000000000000005        5.5651190777914445E-013
   6.2000000000000002        5.8172284911445398E-013
   6.3000000000000007        6.0759786251692119E-013
   6.4000000000000004        6.3414049834042118E-013
   6.5000000000000000        6.6135412380341010E-013
   6.6000000000000005        6.8924192500752742E-013
   6.7000000000000002        7.1780690894994850E-013
   6.8000000000000007        7.4705190552927661E-013
   6.9000000000000004        7.7697956954484912E-013
   7.0000000000000000        8.0759238268928645E-013
   7.1000000000000005        8.3889265553410728E-013
   7.2000000000000002        8.7088252950825174E-013
   7.3000000000000007        9.0356397886937815E-013
   7.4000000000000004        9.3693881266776374E-013
   7.5000000000000000        9.7100867670267633E-013
   7.6000000000000005        1.0057750554710721E-012
   7.7000000000000002        1.0412392741084599E-012
   7.8000000000000007        1.0774025003218529E-012
   7.9000000000000004        1.1142657463145907E-012
   8.0000000000000000        1.1518298707030056E-012
   8.0999999999999996        1.1900955804247105E-012
   8.2000000000000011        1.2290634326384554E-012
   8.3000000000000007        1.2687338366154089E-012
   8.4000000000000004        1.3091070556217583E-012
   8.5000000000000000        1.3501832087924974E-012
   8.5999999999999996        1.3919622729963280E-012
   8.7000000000000011        1.4344440846915403E-012
   8.8000000000000007        1.4776283417727929E-012
   8.9000000000000004        1.5215146054086623E-012
   9.0000000000000000        1.5661023018699265E-012
   9.0999999999999996        1.6113907243484253E-012
   9.2000000000000011        1.6573790347664048E-012
   9.3000000000000007        1.7040662655763882E-012
   9.4000000000000004        1.7514513215512626E-012
   9.5000000000000000        1.7995329815647434E-012
   9.5999999999999996        1.8483099003619563E-012
   9.7000000000000011        1.8977806103201428E-012
   9.8000000000000007        1.9479435231994200E-012
   9.9000000000000004        1.9987969318834935E-012
   10.000000000000000        2.0503390121102822E-012
   10.100000000000000        2.1025678241923659E-012
   10.200000000000001        2.1554813147272128E-012
   10.300000000000001        2.2090773182971541E-012
   10.400000000000000        2.2633535591589352E-012
   10.500000000000000        2.3183076529229327E-012
   10.600000000000001        2.3739371082219514E-012
   10.700000000000001        2.4302393283694039E-012
   10.800000000000001        2.4872116130070948E-012
   10.900000000000000        2.5448511597422463E-012
   11.000000000000000        2.6031550657740572E-012
   11.100000000000001        2.6621203295094383E-012
   11.200000000000001        2.7217438521680936E-012
   11.300000000000001        2.7820224393769072E-012
   11.400000000000000        2.8429528027534093E-012
   11.500000000000000        2.9045315614785071E-012
   11.600000000000001        2.9667552438583906E-012
   11.700000000000001        3.0296202888754486E-012
   11.800000000000001        3.0931230477284197E-012
   11.900000000000000        3.1572597853614527E-012
   12.000000000000000        3.2220266819823409E-012
   12.100000000000001        3.2874198345697495E-012
   12.200000000000001        3.3534352583693892E-012
   12.300000000000001        3.4200688883792297E-012
   12.400000000000000        3.4873165808236687E-012
   12.500000000000000        3.5551741146166886E-012
   12.600000000000001        3.6236371928138734E-012
   12.700000000000001        3.6927014440534804E-012
   12.800000000000001        3.7623624239863196E-012
   12.900000000000000        3.8326156166945951E-012
   13.000000000000000        3.9034564360997355E-012
   13.100000000000001        3.9748802273589776E-012
   13.200000000000001        4.0468822682509800E-012
   13.300000000000001        4.1194577705502803E-012
   13.400000000000000        4.1926018813906682E-012
   13.500000000000000        4.2663096846174877E-012
   13.600000000000001        4.3405762021288053E-012
   13.700000000000001        4.4153963952055072E-012
   13.800000000000001        4.4907651658303114E-012
   13.900000000000000        4.5666773579957222E-012
   14.000000000000000        4.6431277590009074E-012
   14.100000000000001        4.7201111007375394E-012
   14.200000000000001        4.7976220609644239E-012
   14.300000000000001        4.8756552645714791E-012
   14.400000000000000        4.9542052848322305E-012
   14.500000000000000        5.0332666446456733E-012
   14.600000000000001        5.1128338177668475E-012
   14.700000000000001        5.1929012300267375E-012
   14.800000000000001        5.2734632605409127E-012
   14.900000000000000        5.3545142429075075E-012
   15.000000000000000        5.4360484663940973E-012
   15.100000000000001        5.5180601771137362E-012
   15.200000000000001        5.6005435791900866E-012
   15.300000000000001        5.6834928359118476E-012
   15.400000000000000        5.7669020708761387E-012
   15.500000000000000        5.8507653691212996E-012
   15.600000000000001        5.9350767782486557E-012
   15.700000000000001        6.0198303095337974E-012
   15.800000000000001        6.1050199390270458E-012
   15.900000000000000        6.1906396086431587E-012
   16.000000000000000        6.2766832272404119E-012
   16.100000000000001        6.3631446716891375E-012
   16.199999999999999        6.4500177879295131E-012
   16.300000000000001        6.5372963920189422E-012
   16.400000000000002        6.6249742711687969E-012
   16.500000000000000        6.7130451847706489E-012
   16.600000000000001        6.8015028654120890E-012
   16.699999999999999        6.8903410198821371E-012
   16.800000000000001        6.9795533301661569E-012
   16.900000000000002        7.0691334544305395E-012
   17.000000000000000        7.1590750279969515E-012
   17.100000000000001        7.2493716643063762E-012
   17.199999999999999        7.3400169558728894E-012
   17.300000000000001        7.4310044752271688E-012
   17.400000000000002        7.5223277758500160E-012
   17.500000000000000        7.6139803930954528E-012
   17.600000000000001        7.7059558451041329E-012
   17.699999999999999        7.7982476337062832E-012
   17.800000000000001        7.8908492453150110E-012
   17.900000000000002        7.9837541518094012E-012
   18.000000000000000        8.0769558114078659E-012
   18.100000000000001        8.1704476695314444E-012
   18.199999999999999        8.2642231596575525E-012
   18.300000000000001        8.3582757041636206E-012
   18.400000000000002        8.4525987151612365E-012
   18.500000000000000        8.5471855953206113E-012
   18.600000000000001        8.6420297386850650E-012
   18.699999999999999        8.7371245314763609E-012
   18.800000000000001        8.8324633528903391E-012
   18.900000000000002        8.9280395758827053E-012
   19.000000000000000        9.0238465679459086E-012
   19.100000000000001        9.1198776918763792E-012
   19.199999999999999        9.2161263065321238E-012
   19.300000000000001        9.3125857675815102E-012
   19.400000000000002        9.4092494282423608E-012
   19.500000000000000        9.5061106400123339E-012
   19.600000000000001        9.6031627533893463E-012
   19.699999999999999        9.7003991185837971E-012
   19.800000000000001        9.7978130862210471E-012
   19.900000000000002        9.8953980080353460E-012
   20.000000000000000        9.9931472375542422E-012
   20.100000000000001        1.0091054130774812E-011
   20.200000000000003        1.0189112046830393E-011
   20.300000000000001        1.0287314348648918E-011
   20.400000000000002        1.0385654403602189E-011
   20.500000000000000        1.0484125584146679E-011
   20.600000000000001        1.0582721268455691E-011
   20.700000000000003        1.0681434841042657E-011
   20.800000000000001        1.0780259693376083E-011
   20.900000000000002        1.0879189224486148E-011
   21.000000000000000        1.0978216841562490E-011
   21.100000000000001        1.1077335960544007E-011
   21.200000000000003        1.1176540006699875E-011
   21.300000000000001        1.1275822415202844E-011
   21.400000000000002        1.1375176631693649E-011
   21.500000000000000        1.1474596112837978E-011
   21.600000000000001        1.1574074326874633E-011
   21.700000000000003        1.1673604754156038E-011
   21.800000000000001        1.1773180887680690E-011
   21.900000000000002        1.1872796233617502E-011
   22.000000000000000        1.1972444311822362E-011
   22.100000000000001        1.2072118656346820E-011
   22.200000000000003        1.2171812815939019E-011
   22.300000000000001        1.2271520354536742E-011
   22.400000000000002        1.2371234851752822E-011
   22.500000000000000        1.2470949903353223E-011
   22.600000000000001        1.2570659121726919E-011
   22.700000000000003        1.2670356136348956E-011
   22.800000000000001        1.2770034594235569E-011
   22.900000000000002        1.2869688160391826E-011
   23.000000000000000        1.2969310518252479E-011
   23.100000000000001        1.3068895370114847E-011
   23.200000000000003        1.3168436437564799E-011
   23.300000000000001        1.3267927461895609E-011
   23.400000000000002        1.3367362204519350E-011
   23.500000000000000        1.3466734447371525E-011
   23.600000000000001        1.3566037993308397E-011
   23.700000000000003        1.3665266666497661E-011
   23.800000000000001        1.3764414312801731E-011
   23.900000000000002        1.3863474800154788E-011
   24.000000000000000        1.3962442018932257E-011
   24.100000000000001        1.4061309882314153E-011
   24.200000000000003        1.4160072326641500E-011
   24.300000000000001        1.4258723311765945E-011
   24.400000000000002        1.4357256821392879E-011
   24.500000000000000        1.4455666863418289E-011
   24.600000000000001        1.4553947470258506E-011
   24.700000000000003        1.4652092699174211E-011
   24.800000000000001        1.4750096632587489E-011
   24.900000000000002        1.4847953378392750E-011
   25.000000000000000        1.4945657070261750E-011
   25.100000000000001        1.5043201867941611E-011
   25.200000000000003        1.5140581957547183E-011
   25.300000000000001        1.5237791551847550E-011
   25.400000000000002        1.5334824890545697E-011
   25.500000000000000        1.5431676240552762E-011
   25.600000000000001        1.5528339896256108E-011
   25.700000000000003        1.5624810179781717E-011
   25.800000000000001        1.5721081441250081E-011
   25.900000000000002        1.5817148059027416E-011
   26.000000000000000        1.5913004439969851E-011
   26.100000000000001        1.6008645019662828E-011
   26.200000000000003        1.6104064262654539E-011
   26.300000000000001        1.6199256662683702E-011
   26.400000000000002        1.6294216742901868E-011
   26.500000000000000        1.6388939056090403E-011
   26.600000000000001        1.6483418184871587E-011
   26.700000000000003        1.6577648741914827E-011
   26.800000000000001        1.6671625370137245E-011
   26.900000000000002        1.6765342742898867E-011
   27.000000000000000        1.6858795564193035E-011
   27.100000000000001        1.6951978568831064E-011
   27.200000000000003        1.7044886522622243E-011
   27.300000000000001        1.7137514222548270E-011
   27.400000000000002        1.7229856496933308E-011
   27.500000000000000        1.7321908205608130E-011
   27.600000000000001        1.7413664240070490E-011
   27.700000000000003        1.7505119523639200E-011
   27.800000000000001        1.7596269011604870E-011
   27.900000000000002        1.7687107691374632E-011
   28.000000000000000        1.7777630582612687E-011
   28.100000000000001        1.7867832737376316E-011
   28.200000000000003        1.7957709240246558E-011
   28.300000000000001        1.8047255208455140E-011
   28.400000000000002        1.8136465792006214E-011
   28.500000000000000        1.8225336173793820E-011
   28.600000000000001        1.8313861569715010E-011
   28.700000000000003        1.8402037228778330E-011
   28.800000000000001        1.8489858433207865E-011
   28.900000000000002        1.8577320498543635E-011
   29.000000000000000        1.8664418773736687E-011
   29.100000000000001        1.8751148641240896E-011
   29.200000000000003        1.8837505517099947E-011
   29.300000000000001        1.8923484851030694E-011
   29.400000000000002        1.9009082126501743E-011
   29.500000000000000        1.9094292860808821E-011
   29.600000000000001        1.9179112605145758E-011
   29.700000000000003        1.9263536944670942E-011
   29.800000000000001        1.9347561498571208E-011
   29.900000000000002        1.9431181920120511E-011
   30.000000000000000        1.9514393896735592E-011
   30.100000000000001        1.9597193150027574E-011
   30.200000000000003        1.9679575435849818E-011
   30.300000000000001        1.9761536544342261E-011
   30.400000000000002        1.9843072299972037E-011
   30.500000000000000        1.9924178561570102E-011
   30.600000000000001        2.0004851222365100E-011
   30.700000000000003        2.0085086210013169E-011
   30.800000000000001        2.0164879486623912E-011
   30.900000000000002        2.0244227048784130E-011
   31.000000000000000        2.0323124927576911E-011
   31.100000000000001        2.0401569188597729E-011
   31.200000000000003        2.0479555931968061E-011
   31.300000000000001        2.0557081292344337E-011
   31.400000000000002        2.0634141438924962E-011
   31.500000000000000        2.0710732575453026E-011
   31.600000000000001        2.0786850940216738E-011
   31.700000000000003        2.0862492806046604E-011
   31.800000000000001        2.0937654480308860E-011
   31.900000000000002        2.1012332304896750E-011
   32.000000000000000        2.1086522656218223E-011
   32.100000000000001        2.1160221945181267E-011
   32.200000000000003        2.1233426617175292E-011
   32.300000000000004        2.1306133152051079E-011
   32.399999999999999        2.1378338064096618E-011
   32.500000000000000        2.1450037902010741E-011
   32.600000000000001        2.1521229248874059E-011
   32.700000000000003        2.1591908722116829E-011
   32.800000000000004        2.1662072973484619E-011
   32.899999999999999        2.1731718689000688E-011
   33.000000000000000        2.1800842588926381E-011
   33.100000000000001        2.1869441427718614E-011
   33.200000000000003        2.1937511993984625E-011
   33.300000000000004        2.2005051110435145E-011
   33.399999999999999        2.2072055633833531E-011
   33.500000000000000        2.2138522454944248E-011
   33.600000000000001        2.2204448498477436E-011
   33.700000000000003        2.2269830723032134E-011
   33.800000000000004        2.2334666121036525E-011
   33.899999999999999        2.2398951718686495E-011
   34.000000000000000        2.2462684575881298E-011
   34.100000000000001        2.2525861786157715E-011
   34.200000000000003        2.2588480476620934E-011
   34.300000000000004        2.2650537807874628E-011
   34.399999999999999        2.2712030973947938E-011
   34.500000000000000        2.2772957202220699E-011
   34.600000000000001        2.2833313753346461E-011
   34.700000000000003        2.2893097921173684E-011
   34.800000000000004        2.2952307032664945E-011
   34.899999999999999        2.3010938447814079E-011
   35.000000000000000        2.3068989559560842E-011
   35.100000000000001        2.3126457793705326E-011
   35.200000000000003        2.3183340608818263E-011
   35.300000000000004        2.3239635496151301E-011
   35.399999999999999        2.3295339979544742E-011
   35.500000000000000        2.3350451615333390E-011
   35.600000000000001        2.3404967992250930E-011
   35.700000000000003        2.3458886731332493E-011
   35.800000000000004        2.3512205485815421E-011
   35.899999999999999        2.3564921941038797E-011
   36.000000000000000        2.3617033814340648E-011
   36.100000000000001        2.3668538854954346E-011
   36.200000000000003        2.3719434843902624E-011
   36.300000000000004        2.3769719593890831E-011
   36.399999999999999        2.3819390949197955E-011
   36.500000000000000        2.3868446785566886E-011
   36.600000000000001        2.3916885010092607E-011
   36.700000000000003        2.3964703561109210E-011
   36.800000000000004        2.4011900408075601E-011
   36.899999999999999        2.4058473551459617E-011
   37.000000000000000        2.4104421022620881E-011
   37.100000000000001        2.4149740883692487E-011
   37.200000000000003        2.4194431227461364E-011
   37.300000000000004        2.4238490177246703E-011
   37.399999999999999        2.4281915886778542E-011
   37.500000000000000        2.4324706540073394E-011
   37.600000000000001        2.4366860351310452E-011
   37.700000000000003        2.4408375564704936E-011
   37.800000000000004        2.4449250454381807E-011
   37.899999999999999        2.4489483324247281E-011
   38.000000000000000        2.4529072507859831E-011
   38.100000000000001        2.4568016368299509E-011
   38.200000000000003        2.4606313298037447E-011
   38.300000000000004        2.4643961718802902E-011
   38.399999999999999        2.4680960081449907E-011
   38.500000000000000        2.4717306865823491E-011
