# Recoil energy (kev)        Event rate (events/gev)
   1.0000000000000000        3.0559246105187160E-015
   1.5000000000000000        1.0101109581762970E-014
   2.0000000000000000        2.3445790327301657E-014
   2.5000000000000000        4.4833491882273048E-014
   3.0000000000000000        7.5837345054537602E-014
   3.5000000000000000        1.1786653866516233E-013
   4.0000000000000000        1.7217284112765125E-013
   4.5000000000000000        2.3985716227316574E-013
   5.0000000000000000        3.2187612888142115E-013
   5.5000000000000000        4.1904864977359111E-013
   6.0000000000000000        5.3206244857194402E-013
   6.5000000000000000        6.6148054433823551E-013
   7.0000000000000000        8.0774766227605542E-013
   7.5000000000000000        9.7119655852810869E-013
   8.0000000000000000        1.1520542448240370E-012
   8.5000000000000000        1.3504481003443053E-012
   9.0000000000000000        1.5664118596664454E-012
   9.5000000000000000        1.7998914670575688E-012
   10.000000000000000        2.0507507886767569E-012
   10.500000000000000        2.3187771754579417E-012
   11.000000000000000        2.6036868705633663E-012
   11.500000000000000        2.9051302563341043E-012
   12.000000000000000        3.2226969366224642E-012
   12.500000000000000        3.5559206512751401E-012
   13.000000000000000        3.9042840203506443E-012
   13.500000000000000        4.2672231164030665E-012
   14.000000000000000        4.6441318638510547E-012
   14.500000000000000        5.0343662650791152E-012
   15.000000000000000        5.4372484534919042E-012
   15.500000000000000        5.8520705742641122E-012
   16.000000000000000        6.2780984940018032E-012
   16.500000000000000        6.7145753409593012E-012
   17.000000000000000        7.1607248778410796E-012
   17.500000000000000        7.6157547095634135E-012
   18.000000000000000        8.0788593286592461E-012
   18.500000000000000        8.5492230012825430E-012
   19.000000000000000        9.0260224970096966E-012
   19.500000000000000        9.5084296658458025E-012
   20.000000000000000        9.9956138660257348E-012
   20.500000000000000        1.0486744246356308E-011
   21.000000000000000        1.0980991886977141E-011
   21.500000000000000        1.1477531802526683E-011
   22.000000000000000        1.1975544811788342E-011
   22.500000000000000        1.2474219277959699E-011
   23.000000000000000        1.2972752723739383E-011
   23.500000000000000        1.3470353325459900E-011
   24.000000000000000        1.3966241290514264E-011
   24.500000000000000        1.4459650122329911E-011
   25.000000000000000        1.4949827777135867E-011
   25.500000000000000        1.5436037716750479E-011
   26.000000000000000        1.5917559861587902E-011
   26.500000000000000        1.6393691448042388E-011
   27.000000000000000        1.6863747794362647E-011
   27.500000000000000        1.7327062979072852E-011
   28.000000000000000        1.7782990435935314E-011
   28.500000000000000        1.8230903469381379E-011
   29.000000000000000        1.8670195694263630E-011
   29.500000000000000        1.9100281403704498E-011
   30.000000000000000        1.9520595868733024E-011
   30.500000000000000        1.9930595573315804E-011
   31.000000000000000        2.0329758388299813E-011
   31.500000000000000        2.0717583687691276E-011
   32.000000000000000        2.1093592410602531E-011
   32.500000000000000        2.1457327072103115E-011
   33.000000000000000        2.1808351726113412E-011
   33.500000000000000        2.2146251883383221E-011
   34.000000000000000        2.2470634387498411E-011
   34.500000000000000        2.2781127251760267E-011
   35.000000000000000        2.3077379459684592E-011
   35.500000000000000        2.3359060731768574E-011
   36.000000000000000        2.3625861261076362E-011
   36.500000000000000        2.3877491420097479E-011
   37.000000000000000        2.4113681441235729E-011
   37.500000000000000        2.4334181073192160E-011
   38.000000000000000        2.4538759215411882E-011
   38.500000000000000        2.4727203532671989E-011
   39.000000000000000        2.4899320051798106E-011
   39.500000000000000        2.5054932742407241E-011
   40.000000000000000        2.5193883083488326E-011
   40.500000000000000        2.5316029617546221E-011
   41.000000000000000        2.5421247493950771E-011
   41.500000000000000        2.5509428003052701E-011
   42.000000000000000        2.5580478102547466E-011
   42.500000000000000        2.5634319937491117E-011
   43.000000000000000        2.5670890355297011E-011
   43.500000000000000        2.5690140416970202E-011
   44.000000000000000        2.5692034905763183E-011
   44.500000000000000        2.5676551834370520E-011
   45.000000000000000        2.5643681951710967E-011
   45.500000000000000        2.5593428250283250E-011
   46.000000000000000        2.5525805475017776E-011
   46.500000000000000        2.5440839634487992E-011
   47.000000000000000        2.5338567515285581E-011
   47.500000000000000        2.5219036200309421E-011
   48.000000000000000        2.5082302591663241E-011
   48.500000000000000        2.4928432938805865E-011
   49.000000000000000        2.4757502372548421E-011
   49.500000000000000        2.4569594445444880E-011
   50.000000000000000        2.4364800679076721E-011
   50.500000000000000        2.4143220118689023E-011
   51.000000000000000        2.3904958895593644E-011
   51.500000000000000        2.3650129797714378E-011
   52.000000000000000        2.3378851848611793E-011
   52.500000000000000        2.3091249895288608E-011
   53.000000000000000        2.2787454205041863E-011
   53.500000000000000        2.2467600071595363E-011
   54.000000000000000        2.2131827430714435E-011
   54.500000000000000        2.1780280485474891E-011
   55.000000000000000        2.1413107341331621E-011
   55.500000000000000        2.1030459651102748E-011
   56.000000000000000        2.0632492269963064E-011
   56.500000000000000        2.0219362920514528E-011
   57.000000000000000        1.9791231867980194E-011
   57.500000000000000        1.9348261605546531E-011
   58.000000000000000        1.8890616549859639E-011
   58.500000000000000        1.8418462746661485E-011
   59.000000000000000        1.7931967586535692E-011
   59.500000000000000        1.7431299530715793E-011
   60.000000000000000        1.6916627846893567E-011
   60.500000000000000        1.6388122354951233E-011
   61.000000000000000        1.5845953182527912E-011
   61.500000000000000        1.5290290530319148E-011
   62.000000000000000        1.4721304446995836E-011
   62.500000000000000        1.4139164613621080E-011
   63.000000000000000        1.3544040137430514E-011
   63.500000000000000        1.2936099354836714E-011
   64.000000000000000        1.2315509643507605E-011
   64.500000000000000        1.1682437243363585E-011
   65.000000000000000        1.1037047086330231E-011
   65.500000000000000        1.0379502634679199E-011
   66.000000000000000        9.7099657277837294E-012
   66.500000000000000        9.0285964371109728E-012
   67.000000000000000        8.3355529292703664E-012
   67.500000000000000        7.6309913369326894E-012
   68.000000000000000        6.9150656374322752E-012
   68.500000000000000        6.1879275388628217E-012
   69.000000000000000        5.4497263734752775E-012
   69.500000000000000        4.7006089981839936E-012
   70.000000000000000        3.9407197019882546E-012
   70.500000000000000        3.1702001201134516E-012
   71.000000000000000        2.3891891546782744E-012
   71.500000000000000        1.5978229016924667E-012
   72.000000000000000        7.9623458419116300E-013
   72.500000000000000        0.0000000000000000     
   73.000000000000000        0.0000000000000000     
   73.500000000000000        0.0000000000000000     
   74.000000000000000        0.0000000000000000     
   74.500000000000000        0.0000000000000000     
   75.000000000000000        0.0000000000000000     
   75.500000000000000        0.0000000000000000     
   76.000000000000000        0.0000000000000000     
   76.500000000000000        0.0000000000000000     
   77.000000000000000        0.0000000000000000     
   77.500000000000000        0.0000000000000000     
   78.000000000000000        0.0000000000000000     
   78.500000000000000        0.0000000000000000     
   79.000000000000000        0.0000000000000000     
   79.500000000000000        0.0000000000000000     
   80.000000000000000        0.0000000000000000     
   80.500000000000000        0.0000000000000000     
   81.000000000000000        0.0000000000000000     
   81.500000000000000        0.0000000000000000     
   82.000000000000000        0.0000000000000000     
   82.500000000000000        0.0000000000000000     
   83.000000000000000        0.0000000000000000     
   83.500000000000000        0.0000000000000000     
   84.000000000000000        0.0000000000000000     
   84.500000000000000        0.0000000000000000     
   85.000000000000000        0.0000000000000000     
   85.500000000000000        0.0000000000000000     
   86.000000000000000        0.0000000000000000     
   86.500000000000000        0.0000000000000000     
   87.000000000000000        0.0000000000000000     
   87.500000000000000        0.0000000000000000     
   88.000000000000000        0.0000000000000000     
   88.500000000000000        0.0000000000000000     
   89.000000000000000        0.0000000000000000     
   89.500000000000000        0.0000000000000000     
   90.000000000000000        0.0000000000000000     
   90.500000000000000        0.0000000000000000     
   91.000000000000000        0.0000000000000000     
   91.500000000000000        0.0000000000000000     
   92.000000000000000        0.0000000000000000     
   92.500000000000000        0.0000000000000000     
   93.000000000000000        0.0000000000000000     
   93.500000000000000        0.0000000000000000     
   94.000000000000000        0.0000000000000000     
   94.500000000000000        0.0000000000000000     
   95.000000000000000        0.0000000000000000     
   95.500000000000000        0.0000000000000000     
   96.000000000000000        0.0000000000000000     
   96.500000000000000        0.0000000000000000     
   97.000000000000000        0.0000000000000000     
   97.500000000000000        0.0000000000000000     
   98.000000000000000        0.0000000000000000     
   98.500000000000000        0.0000000000000000     
   99.000000000000000        0.0000000000000000     
   99.500000000000000        0.0000000000000000     
   100.00000000000000        0.0000000000000000     
