# Recoil energy (kev)        Event rate (events/gev)
   1.0000000000000000        1.0547983524909145E-015
   1.1000000000000001        1.3981287888578465E-015
   1.2000000000000000        1.8076300729097609E-015
   1.3000000000000000        2.2887038638348678E-015
   1.3999999999999999        2.8466522728240832E-015
   1.5000000000000000        3.4866785464297429E-015
   1.6000000000000001        4.2138877533331739E-015
   1.7000000000000000        5.0332874743453960E-015
   1.8000000000000000        5.9497884954707925E-015
   1.9000000000000001        6.9682055038685334E-015
   2.0000000000000000        8.0932577865492121E-015
   2.1000000000000001        9.3295699316505225E-015
   2.2000000000000002        1.0681672532136396E-014
   2.3000000000000003        1.2154002891768878E-014
   2.3999999999999999        1.3750905733205595E-014
   2.5000000000000000        1.5476633908076267E-014
   2.6000000000000001        1.7335349108897284E-014
   2.7000000000000002        1.9331122582684555E-014
   2.8000000000000003        2.1467935846126999E-014
   2.8999999999999999        2.3749681402188042E-014
   3.0000000000000000        2.6180163458001068E-014
   3.1000000000000001        2.8763098643932288E-014
   3.2000000000000002        3.1502116733681267E-014
   3.3000000000000003        3.4400761365297339E-014
   3.4000000000000004        3.7462490762987617E-014
   3.5000000000000000        4.0690678459598055E-014
   3.6000000000000001        4.4088614019649037E-014
   3.7000000000000002        4.7659503762811081E-014
   3.8000000000000003        5.1406471487706574E-014
   3.9000000000000004        5.5332559195926754E-014
   4.0000000000000000        5.9440727816155302E-014
   4.1000000000000005        6.3733857928291367E-014
   4.2000000000000002        6.8214750487466585E-014
   4.2999999999999998        7.2886127547856164E-014
   4.4000000000000004        7.7750632986177582E-014
   4.5000000000000000        8.2810833224786203E-014
   4.6000000000000005        8.8069217954261402E-014
   4.7000000000000002        9.3528200855399659E-014
   4.7999999999999998        9.9190120320507416E-014
   4.9000000000000004        1.0505724017391811E-013
   5.0000000000000000        1.1113175039163208E-013
   5.1000000000000005        1.1741576781999605E-013
   5.2000000000000002        1.2391133689333786E-013
   5.2999999999999998        1.3062043035047413E-013
   5.4000000000000004        1.3754494994999840E-013
   5.5000000000000000        1.4468672718428268E-013
   5.6000000000000005        1.5204752399210875E-013
   5.7000000000000002        1.5962903346984388E-013
   5.8000000000000007        1.6743288058110295E-013
   5.9000000000000004        1.7546062286480187E-013
   6.0000000000000000        1.8371375114155133E-013
   6.1000000000000005        1.9219369021830163E-013
   6.2000000000000002        2.0090179959118639E-013
   6.3000000000000007        2.0983937414647982E-013
   6.4000000000000004        2.1900764485962467E-013
   6.5000000000000000        2.2840777949223399E-013
   6.6000000000000005        2.3804088328704254E-013
   6.7000000000000002        2.4790799966071242E-013
   6.8000000000000007        2.5801011089445126E-013
   6.9000000000000004        2.6834813882238225E-013
   7.0000000000000000        2.7892294551760259E-013
   7.1000000000000005        2.8973533397588204E-013
   7.2000000000000002        3.0078604879693786E-013
   7.3000000000000007        3.1207577686324645E-013
   7.4000000000000004        3.2360514801631840E-013
   7.5000000000000000        3.3537473573041881E-013
   7.6000000000000005        3.4738505778364710E-013
   7.7000000000000002        3.5963657692635593E-013
   7.8000000000000007        3.7212970154685034E-013
   7.9000000000000004        3.8486478633431549E-013
   8.0000000000000000        3.9784213293895551E-013
   8.0999999999999996        4.1106199062926314E-013
   8.2000000000000011        4.2452455694640045E-013
   8.3000000000000007        4.3822997835566533E-013
   8.4000000000000004        4.5217835089495127E-013
   8.5000000000000000        4.6636972082022537E-013
   8.5999999999999996        4.8080408524794299E-013
   8.7000000000000011        4.9548139279438659E-013
   8.8000000000000007        5.1040154421186719E-013
   8.9000000000000004        5.2556439302180060E-013
   9.0000000000000000        5.4096974614456652E-013
   9.0999999999999996        5.5661736452616316E-013
   9.2000000000000011        5.7250696376161241E-013
   9.3000000000000007        5.8863821471508031E-013
   9.4000000000000004        6.0501074413669087E-013
   9.5000000000000000        6.2162413527600234E-013
   9.5999999999999996        6.3847792849211879E-013
   9.7000000000000011        6.5557162186040451E-013
   9.8000000000000007        6.7290467177578999E-013
   9.9000000000000004        6.9047649355264654E-013
   10.000000000000000        7.0828646202117590E-013
   10.100000000000000        7.2633391212032252E-013
   10.200000000000001        7.4461813948719898E-013
   10.300000000000001        7.6313840104294187E-013
   10.400000000000000        7.8189391557506104E-013
   10.500000000000000        8.0088386431617906E-013
   10.600000000000001        8.2010739151924448E-013
   10.700000000000001        8.3956360502905412E-013
   10.800000000000001        8.5925157685026924E-013
   10.900000000000000        8.7917034371167249E-013
   11.000000000000000        8.9931890762688204E-013
   11.100000000000001        9.1969623645131619E-013
   11.200000000000001        9.4030126443553525E-013
   11.300000000000001        9.6113289277487666E-013
   11.400000000000000        9.8218999015536253E-013
   11.500000000000000        1.0034713932959228E-012
   11.600000000000001        1.0249759074868731E-012
   11.700000000000001        1.0467023071246711E-012
   11.800000000000001        1.0686493362429023E-012
   11.900000000000000        1.0908157090395298E-012
   12.000000000000000        1.1132001104003993E-012
   12.100000000000001        1.1358011964189222E-012
   12.200000000000001        1.1586175949120167E-012
   12.300000000000001        1.1816479059322773E-012
   12.400000000000000        1.2048907022763372E-012
   12.500000000000000        1.2283445299893979E-012
   12.600000000000001        1.2520079088660557E-012
   12.700000000000001        1.2758793329472224E-012
   12.800000000000001        1.2999572710133187E-012
   12.900000000000000        1.3242401670735970E-012
   13.000000000000000        1.3487264408517165E-012
   13.100000000000001        1.3734144882674585E-012
   13.200000000000001        1.3983026819146250E-012
   13.300000000000001        1.4233893715351600E-012
   13.400000000000000        1.4486728844894442E-012
   13.500000000000000        1.4741515262227319E-012
   13.600000000000001        1.4998235807278566E-012
   13.700000000000001        1.5256873110040489E-012
   13.800000000000001        1.5517409595119699E-012
   13.900000000000000        1.5779827486249616E-012
   14.000000000000000        1.6044108810764624E-012
   14.100000000000001        1.6310235404036304E-012
   14.200000000000001        1.6578188913871508E-012
   14.300000000000001        1.6847950804872862E-012
   14.400000000000000        1.7119502362761404E-012
   14.500000000000000        1.7392824698660218E-012
   14.600000000000001        1.7667898753342326E-012
   14.700000000000001        1.7944705301438938E-012
   14.800000000000001        1.8223224955610876E-012
   14.900000000000000        1.8503438170682618E-012
   15.000000000000000        1.8785325247738052E-012
   15.100000000000001        1.9068866338179451E-012
   15.200000000000001        1.9354041447748196E-012
   15.300000000000001        1.9640830440509897E-012
   15.400000000000000        1.9929213042799382E-012
   15.500000000000000        2.0219168847131887E-012
   15.600000000000001        2.0510677316074622E-012
   15.700000000000001        2.0803717786082436E-012
   15.800000000000001        2.1098269471296231E-012
   15.900000000000000        2.1394311467305337E-012
   16.000000000000000        2.1691822754871992E-012
   16.100000000000001        2.1990782203620582E-012
   16.199999999999999        2.2291168575689028E-012
   16.300000000000001        2.2592960529344693E-012
   16.400000000000002        2.2896136622564483E-012
   16.500000000000000        2.3200675316577316E-012
   16.600000000000001        2.3506554979371733E-012
   16.699999999999999        2.3813753889167316E-012
   16.800000000000001        2.4122250237850426E-012
   16.900000000000002        2.4432022134374210E-012
   17.000000000000000        2.4743047608122199E-012
   17.100000000000001        2.5055304612238816E-012
   17.199999999999999        2.5368771026921897E-012
   17.300000000000001        2.5683424662681891E-012
   17.400000000000002        2.5999243263565404E-012
   17.500000000000000        2.6316204510343945E-012
   17.600000000000001        2.6634286023668013E-012
   17.699999999999999        2.6953465367186526E-012
   17.800000000000001        2.7273720050632273E-012
   17.900000000000002        2.7595027532871803E-012
   18.000000000000000        2.7917365224923325E-012
   18.100000000000001        2.8240710492937872E-012
   18.199999999999999        2.8565040661149236E-012
   18.300000000000001        2.8890333014788957E-012
   18.400000000000002        2.9216564802966970E-012
   18.500000000000000        2.9543713241521399E-012
   18.600000000000001        2.9871755515832072E-012
   18.699999999999999        3.0200668783603278E-012
   18.800000000000001        3.0530430177612417E-012
   18.900000000000002        3.0861016808426648E-012
   19.000000000000000        3.1192405767086485E-012
   19.100000000000001        3.1524574127756864E-012
   19.199999999999999        3.1857498950346951E-012
   19.300000000000001        3.2191157283095869E-012
   19.400000000000002        3.2525526165128925E-012
   19.500000000000000        3.2860582628980843E-012
   19.600000000000001        3.3196303703087020E-012
   19.699999999999999        3.3532666414244320E-012
   19.800000000000001        3.3869647790040028E-012
   19.900000000000002        3.4207224861250184E-012
   20.000000000000000        3.4545374664206411E-012
   20.100000000000001        3.4884074243133054E-012
   20.200000000000003        3.5223300652453208E-012
   20.300000000000001        3.5563030959063141E-012
   20.400000000000002        3.5903242244579285E-012
   20.500000000000000        3.6243911607553003E-012
   20.600000000000001        3.6585016165656557E-012
   20.700000000000003        3.6926533057838560E-012
   20.800000000000001        3.7268439446451665E-012
   20.900000000000002        3.7610712519348746E-012
   21.000000000000000        3.7953329491951676E-012
   21.100000000000001        3.8296267609290663E-012
   21.200000000000003        3.8639504148014618E-012
   21.300000000000001        3.8983016418373819E-012
   21.400000000000002        3.9326781766172442E-012
   21.500000000000000        3.9670777574695039E-012
   21.600000000000001        4.0014981266604128E-012
   21.700000000000003        4.0359370305808949E-012
   21.800000000000001        4.0703922199308486E-012
   21.900000000000002        4.1048614499005945E-012
   22.000000000000000        4.1393424803495764E-012
   22.100000000000001        4.1738330759824090E-012
   22.200000000000003        4.2083310065222984E-012
   22.300000000000001        4.2428340468815944E-012
   22.400000000000002        4.2773399773298645E-012
   22.500000000000000        4.3118465836593965E-012
   22.600000000000001        4.3463516573478015E-012
   22.700000000000003        4.3808529957183201E-012
   22.800000000000001        4.4153484020973908E-012
   22.900000000000002        4.4498356859697125E-012
   23.000000000000000        4.4843126631308066E-012
   23.100000000000001        4.5187771558369065E-012
   23.200000000000003        4.5532269929525382E-012
   23.300000000000001        4.5876600100955660E-012
   23.400000000000002        4.6220740497795824E-012
   23.500000000000000        4.6564669615541857E-012
   23.600000000000001        4.6908366021425895E-012
   23.700000000000003        4.7251808355768947E-012
   23.800000000000001        4.7594975333309486E-012
   23.900000000000002        4.7937845744509306E-012
   24.000000000000000        4.8280398456833713E-012
   24.100000000000001        4.8622612416012037E-012
   24.200000000000003        4.8964466647270585E-012
   24.300000000000001        4.9305940256546155E-012
   24.400000000000002        4.9647012431674497E-012
   24.500000000000000        4.9987662443558082E-012
   24.600000000000001        5.0327869647310065E-012
   24.700000000000003        5.0667613483376566E-012
   24.800000000000001        5.1006873478636314E-012
   24.900000000000002        5.1345629247479821E-012
   25.000000000000000        5.1683860492865669E-012
   25.100000000000001        5.2021547007355585E-012
   25.200000000000003        5.2358668674128270E-012
   25.300000000000001        5.2695205467972539E-012
   25.400000000000002        5.3031137456258412E-012
   25.500000000000000        5.3366444799889043E-012
   25.600000000000001        5.3701107754230981E-012
   25.700000000000003        5.4035106670023665E-012
   25.800000000000001        5.4368421994269251E-012
   25.900000000000002        5.4701034271104559E-012
   26.000000000000000        5.5032924142647598E-012
   26.100000000000001        5.5364072349830940E-012
   26.200000000000003        5.5694459733210778E-012
   26.300000000000001        5.6024067233759176E-012
   26.400000000000002        5.6352875893636389E-012
   26.500000000000000        5.6680866856944344E-012
   26.600000000000001        5.7008021370459798E-012
   26.700000000000003        5.7334320784353810E-012
   26.800000000000001        5.7659746552884986E-012
   26.900000000000002        5.7984280235081645E-012
   27.000000000000000        5.8307903495402546E-012
   27.100000000000001        5.8630598104379613E-012
   27.200000000000003        5.8952345939242929E-012
   27.300000000000001        5.9273128984531341E-012
   27.400000000000002        5.9592929332679330E-012
   27.500000000000000        5.9911729184593014E-012
   27.600000000000001        6.0229510850205674E-012
   27.700000000000003        6.0546256749016592E-012
   27.800000000000001        6.0861949410614459E-012
   27.900000000000002        6.1176571475183358E-012
   28.000000000000000        6.1490105693991619E-012
   28.100000000000001        6.1802534929866256E-012
   28.200000000000003        6.2113842157649951E-012
   28.300000000000001        6.2424010464643489E-012
   28.400000000000002        6.2733023051029205E-012
   28.500000000000000        6.3040863230283839E-012
   28.600000000000001        6.3347514429572181E-012
   28.700000000000003        6.3652960190126511E-012
   28.800000000000001        6.3957184167611208E-012
   28.900000000000002        6.4260170132473076E-012
   29.000000000000000        6.4561901970274682E-012
   29.100000000000001        6.4862363682016242E-012
   29.200000000000003        6.5161539384440398E-012
   29.300000000000001        6.5459413310323647E-012
   29.400000000000002        6.5755969808754189E-012
   29.500000000000000        6.6051193345395570E-012
   29.600000000000001        6.6345068502735128E-012
   29.700000000000003        6.6637579980321162E-012
   29.800000000000001        6.6928712594984470E-012
   29.900000000000002        6.7218451281047684E-012
   30.000000000000000        6.7506781090521830E-012
   30.100000000000001        6.7793687193287686E-012
   30.200000000000003        6.8079154877266800E-012
   30.300000000000001        6.8363169548577926E-012
   30.400000000000002        6.8645716731683001E-012
   30.500000000000000        6.8926782069516306E-012
   30.600000000000001        6.9206351323607825E-012
   30.700000000000003        6.9484410374188123E-012
   30.800000000000001        6.9760945220284342E-012
   30.900000000000002        7.0035941979805844E-012
   31.000000000000000        7.0309386889613527E-012
   31.100000000000001        7.0581266305581824E-012
   31.200000000000003        7.0851566702647373E-012
   31.300000000000001        7.1120274674846716E-012
   31.400000000000002        7.1387376935341705E-012
   31.500000000000000        7.1652860316436584E-012
   31.600000000000001        7.1916711769581159E-012
   31.700000000000003        7.2178918365365683E-012
   31.800000000000001        7.2439467293503094E-012
   31.900000000000002        7.2698345862802743E-012
   32.000000000000000        7.2955541501131290E-012
   32.100000000000001        7.3211041755366790E-012
   32.200000000000003        7.3464834291338504E-012
   32.300000000000004        7.3716906893761249E-012
   32.399999999999999        7.3967247466156304E-012
   32.500000000000000        7.4215844030763886E-012
   32.600000000000001        7.4462684728448660E-012
   32.700000000000003        7.4707757818589031E-012
   32.800000000000004        7.4951051678966002E-012
   32.899999999999999        7.5192554805636146E-012
   33.000000000000000        7.5432255812797070E-012
   33.100000000000001        7.5670143432646655E-012
   33.200000000000003        7.5906206515230328E-012
   33.300000000000004        7.6140434028281205E-012
   33.399999999999999        7.6372815057050695E-012
   33.500000000000000        7.6603338804132724E-012
   33.600000000000001        7.6831994589277118E-012
   33.700000000000003        7.7058771849196039E-012
   33.800000000000004        7.7283660137362281E-012
   33.899999999999999        7.7506649123800665E-012
   34.000000000000000        7.7727728594869755E-012
   34.100000000000001        7.7946888453036436E-012
   34.200000000000003        7.8164118716643224E-012
   34.300000000000004        7.8379409519668717E-012
   34.399999999999999        7.8592751111479834E-012
   34.500000000000000        7.8804133856575629E-012
   34.600000000000001        7.9013548234327941E-012
   34.700000000000003        7.9220984838709667E-012
   34.800000000000004        7.9426434378020568E-012
   34.899999999999999        7.9629887674603698E-012
   35.000000000000000        7.9831335664556796E-012
   35.100000000000001        8.0030769397435732E-012
   35.200000000000003        8.0228180035951919E-012
   35.300000000000004        8.0423558855664691E-012
   35.399999999999999        8.0616897244662936E-012
   35.500000000000000        8.0808186703249250E-012
   35.600000000000001        8.0997418843607428E-012
   35.700000000000003        8.1184585389472018E-012
   35.800000000000004        8.1369678175788415E-012
   35.899999999999999        8.1552689148367962E-012
   36.000000000000000        8.1733610363538035E-012
   36.100000000000001        8.1912433987784918E-012
   36.200000000000003        8.2089152297393553E-012
   36.300000000000004        8.2263757678079533E-012
   36.399999999999999        8.2436242624617736E-012
   36.500000000000000        8.2606599740464769E-012
   36.600000000000001        8.2774821737377378E-012
   36.700000000000003        8.2940901435023706E-012
   36.800000000000004        8.3104831760592146E-012
   36.899999999999999        8.3266605748394873E-012
   37.000000000000000        8.3426216539464755E-012
   37.100000000000001        8.3583657381150310E-012
   37.200000000000003        8.3738921626705737E-012
   37.300000000000004        8.3892002734872700E-012
   37.399999999999999        8.4042894269464901E-012
   37.500000000000000        8.4191589898941237E-012
   37.600000000000001        8.4338083395979807E-012
   37.700000000000003        8.4482368637044931E-012
   37.800000000000004        8.4624439601952574E-012
   37.899999999999999        8.4764290373428938E-012
   38.000000000000000        8.4901915136669368E-012
   38.100000000000001        8.5037308178887289E-012
   38.200000000000003        8.5170463888867617E-012
   38.300000000000004        8.5301376756509618E-012
   38.399999999999999        8.5430041372369176E-012
   38.500000000000000        8.5556452427198613E-012
