# Recoil energy (kev)        Event rate (events/gev)
   1.0000000000000000        162735.34933965121     
   2.0000000000000000        152732.39469524543     
   3.0000000000000000        143298.45564010783     
   4.0000000000000000        134403.63085042781     
   5.0000000000000000        126019.45986863092     
   6.0000000000000000        118118.86066968103     
   7.0000000000000000        110676.06953879001     
   8.0000000000000000        103666.58319919037     
   9.0000000000000000        97067.103128515751     
   10.000000000000000        90855.482002398072     
   11.000000000000000        85010.672204114788     
   12.000000000000000        79512.676339476267     
   13.000000000000000        74342.499696636063     
   14.000000000000000        69482.104591109863     
   15.000000000000000        64914.366536989764     
   16.000000000000000        60623.032186137963     
   17.000000000000000        56592.678978013028     
   18.000000000000000        52808.676443725853     
   19.000000000000000        49257.149108920181     
   20.000000000000000        45924.940941129127     
   21.000000000000000        42799.581288350826     
   22.000000000000000        39869.252256723463     
   23.000000000000000        37122.757476338040     
   24.000000000000000        34549.492205418101     
   25.000000000000000        32139.414724298491     
   26.000000000000000        29883.018971854850     
   27.000000000000000        27771.308378263981     
   28.000000000000000        25795.770849208027     
   29.000000000000000        23948.354857869152     
   30.000000000000000        22221.446602294422     
   31.000000000000000        20607.848186935866     
   32.000000000000000        19100.756788391245     
   33.000000000000000        17693.744766577671     
   34.000000000000000        16380.740683766602     
   35.000000000000000        15156.011195090128     
   36.000000000000000        14014.143775291472     
   37.000000000000000        12950.030247641289     
   38.000000000000000        11958.851082067526     
   39.000000000000000        11036.060430653666     
   40.000000000000000        10177.371869746985     
   41.000000000000000        9378.7448189808401     
   42.000000000000000        8636.3716085563210     
   43.000000000000000        7946.6651671456630     
   44.000000000000000        7306.2473037731606     
   45.000000000000000        6711.9375579983007     
   46.000000000000000        6160.7425936705104     
   47.000000000000000        5649.8461124445548     
   48.000000000000000        5176.5992641413532     
   49.000000000000000        4738.5115319085417     
   50.000000000000000        4333.2420709815788     
   51.000000000000000        3958.5914806671349     
   52.000000000000000        3612.4939899668366     
   53.000000000000000        3293.0100380328836     
   54.000000000000000        2998.3192313947638     
   55.000000000000000        2726.7136606222011     
   56.000000000000000        2476.5915597907051     
   57.000000000000000        2246.4512927952924     
   58.000000000000000        2034.8856512141163     
   59.000000000000000        1840.5764490582346     
   60.000000000000000        1662.2894003561228     
   61.000000000000000        1498.8692661130453     
   62.000000000000000        1349.2352577559755     
   63.000000000000000        1212.3766847250042     
   64.000000000000000        1087.3488344027978     
   65.000000000000000        973.26907308473665     
   66.000000000000000        869.31315718473911     
   67.000000000000000        774.71174434579393     
   68.000000000000000        688.74709458039729     
   69.000000000000000        610.74995200481294     
   70.000000000000000        540.09659815313603     
   71.000000000000000        476.20610370132079     
   72.000000000000000        418.53752231181323     
   73.000000000000000        366.58776296612945     
   74.000000000000000        319.88889294735861     
   75.000000000000000        278.00610468548217     
   76.000000000000000        240.53559544463727     
   77.000000000000000        207.10260143127002     
   78.000000000000000        177.35954469725598     
   79.000000000000000        150.98428694250038     
   80.000000000000000        127.67848460105208     
   81.000000000000000        107.16603986256048     
   82.000000000000000        89.191642537315957     
   83.000000000000000        73.519397918558937     
   84.000000000000000        59.931536030650527     
   85.000000000000000        48.227197876398236     
   86.000000000000000        38.221294511747260     
   87.000000000000000        29.743434981522348     
   88.000000000000000        22.636919346297741     
   89.000000000000000        16.757793218123592     
   90.000000000000000        11.973960402099417     
   91.000000000000000        8.1643504119679360     
   92.000000000000000        5.2181377913157068     
   93.000000000000000        3.0340103279519335     
   94.000000000000000        1.5194833978466884     
   95.000000000000000       0.59025781696334656     
   96.000000000000000       0.16961871468135062     
   97.000000000000000       0.18787307155140431     
   98.000000000000000       0.58182368710802757     
   99.000000000000000        1.2942774606436365     
   100.00000000000000        2.2735859794617785     
   101.00000000000000        3.4732165154106762     
   102.00000000000000        4.8513516316803376     
   103.00000000000000        6.3705156981404434     
   104.00000000000000        7.9972267051184973     
   105.00000000000000        9.7016718526636474     
   106.00000000000000        11.457405475217865     
   107.00000000000000        13.241067940390682     
   108.00000000000000        15.032124235417912     
   109.00000000000000        16.812621026013787     
   110.00000000000000        18.566961039907717     
   111.00000000000000        20.281693691515795     
   112.00000000000000        21.945320925118207     
   113.00000000000000        23.548117311720357     
   114.00000000000000        25.081963489623394     
   115.00000000000000        26.540192090765999     
   116.00000000000000        27.917445344215871     
   117.00000000000000        29.209543594970334     
   118.00000000000000        30.413364020532349     
   119.00000000000000        31.526728869723804     
   120.00000000000000        32.548302587956705     
   121.00000000000000        33.477497230847192     
   122.00000000000000        34.314385603686439     
   123.00000000000000        35.059621598017280     
   124.00000000000000        35.714367228460468     
   125.00000000000000        36.280225903110974     
   126.00000000000000        36.759181489345167     
   127.00000000000000        37.153542763830977     
   128.00000000000000        37.465892861008790     
   129.00000000000000        37.699043358352625     
   130.00000000000000        37.855992659440865     
   131.00000000000000        37.939888357290720     
   132.00000000000000        37.953993280641541     
   133.00000000000000        37.901654944936588     
   134.00000000000000        37.786278147748398     
   135.00000000000000        37.611300465332050     
   136.00000000000000        37.380170422969627     
   137.00000000000000        37.096328126802071     
   138.00000000000000        36.763188159014646     
   139.00000000000000        36.384124551559772     
   140.00000000000000        35.962457666144807     
   141.00000000000000        35.501442819998559     
   142.00000000000000        35.004260508013580     
   143.00000000000000        34.474008082274700     
   144.00000000000000        33.913692759758682     
   145.00000000000000        33.326225838180939     
   146.00000000000000        32.714418008565389     
   147.00000000000000        32.080975661211113     
   148.00000000000000        31.428498089289395     
   149.00000000000000        30.759475501411544     
   150.00000000000000        30.076287761154759     
   151.00000000000000        29.381203777756244     
   152.00000000000000        28.676381478007013     
   153.00000000000000        27.963868294825019     
   154.00000000000000        27.245602113073733     
   155.00000000000000        26.523412617947148     
   156.00000000000000        25.799022995676765     
   157.00000000000000        25.074051940462510     
   158.00000000000000        24.350015925378749     
   159.00000000000000        23.628331698613824     
   160.00000000000000        22.910318969741994     
   161.00000000000000        22.197203253847203     
   162.00000000000000        21.490118844210059     
   163.00000000000000        20.790111886967630     
   164.00000000000000        20.098143533645953     
   165.00000000000000        19.415093149787936     
   166.00000000000000        18.741761560045166     
   167.00000000000000        18.078874312090623     
   168.00000000000000        17.427084943546721     
   169.00000000000000        16.786978237825608     
   170.00000000000000        16.159073456345961     
   171.00000000000000        15.543827536034801     
   172.00000000000000        14.941638242360041     
   173.00000000000000        14.352847269359041     
   174.00000000000000        13.777743279258392     
   175.00000000000000        13.216564875309853     
   176.00000000000000        12.669503502414482     
   177.00000000000000        12.136706270969674     
   178.00000000000000        11.618278700165861     
   179.00000000000000        11.114287377674998     
   180.00000000000000        10.624762533330065     
   181.00000000000000        10.149700524984963     
   182.00000000000000        9.6890662352828993     
   183.00000000000000        9.2427953785453525     
   184.00000000000000        8.8107967174275945     
   185.00000000000000        8.3929541893817436     
   186.00000000000000        7.9891289433137809     
   187.00000000000000        7.5991612871353569     
   188.00000000000000        7.2228725471841253     
   189.00000000000000        6.8600668407327356     
   190.00000000000000        6.5105327630157994     
   191.00000000000000        6.1740449903924421     
   192.00000000000000        5.8503658014210336     
   193.00000000000000        5.5392463387940873     
   194.00000000000000        5.2404287004818526     
   195.00000000000000        4.9536462689483249     
   196.00000000000000        4.6786250494450057     
   197.00000000000000        4.4150855807823364     
   198.00000000000000        4.1627433542655501     
   199.00000000000000        3.9213099853052609     
   200.00000000000000        3.6904941540605329     
   201.00000000000000        3.4700024839128298     
   202.00000000000000        3.2595403601455928     
   203.00000000000000        3.0588126911955338     
   204.00000000000000        2.8675246148270670     
   205.00000000000000        2.6853821515550989     
   206.00000000000000        2.5120928076152778     
   207.00000000000000        2.3473661297431647     
   208.00000000000000        2.1909142139862734     
   209.00000000000000        2.0424521707272700     
   210.00000000000000        1.9016985480511297     
   211.00000000000000        1.7683757155367554     
   212.00000000000000        1.6422102105026344     
   213.00000000000000        1.5229330486795316     
   214.00000000000000        1.4102800012272516     
   215.00000000000000        1.3039918399546857     
   216.00000000000000        1.2038145525428183     
   217.00000000000000        1.1094995295115395     
   218.00000000000000        1.0208037246100490     
   219.00000000000000       0.93748979025164114     
   220.00000000000000       0.85932618955283502     
   221.00000000000000       0.78608728647706105     
   222.00000000000000       0.71755341552434238     
   223.00000000000000       0.65351093234922675     
   224.00000000000000       0.59375224663139581     
   225.00000000000000       0.53807583846663209     
   226.00000000000000       0.48628625948954124     
   227.00000000000000       0.43819411988469770     
   228.00000000000000       0.39361606238899161     
   229.00000000000000       0.35237472433577283     
   230.00000000000000       0.31429868873982819     
   231.00000000000000       0.27922242537280534     
   232.00000000000000       0.24698622273015422     
   233.00000000000000       0.21743611174341873     
   234.00000000000000       0.19042378204674218     
   235.00000000000000       0.16580649156182575     
   236.00000000000000       0.14344697012325502     
   237.00000000000000       0.12321331782503687     
   238.00000000000000       0.10497889872932509     
   239.00000000000000        8.8622230540304839E-002
   240.00000000000000        7.4026870809450376E-002
   241.00000000000000        6.1081300202940017E-002
   242.00000000000000        4.9678803328328490E-002
   243.00000000000000        3.9717347584995503E-002
   244.00000000000000        3.1099460471750245E-002
   245.00000000000000        2.3732105755345737E-002
   246.00000000000000        1.7526558875116151E-002
   247.00000000000000        1.2398281931813561E-002
   248.00000000000000        8.2667985829531568E-003
   249.00000000000000        5.0555691421627011E-003
   250.00000000000000        2.6918661566765019E-003
   251.00000000000000        1.1066507147972152E-003
   252.00000000000000        2.3444971395397701E-004
   253.00000000000000        1.3234299911964570E-005
   254.00000000000000        3.8429966866976350E-004
   255.00000000000000        1.2921464045700434E-003
   256.00000000000000        2.6843635111272169E-003
   257.00000000000000        4.5115132750115795E-003
   258.00000000000000        6.7270180884662131E-003
   259.00000000000000        9.2870493411909456E-003
   260.00000000000000        1.2150418479249976E-002
   261.00000000000000        1.5278470316021274E-002
   262.00000000000000        1.8634978668309411E-002
   263.00000000000000        2.2186044379705724E-002
   264.00000000000000        2.5899995782919610E-002
   265.00000000000000        2.9747291643076344E-002
   266.00000000000000        3.3700426615048608E-002
   267.00000000000000        3.7733839239377905E-002
   268.00000000000000        4.1823822493654718E-002
   269.00000000000000        4.5948436908899284E-002
   270.00000000000000        5.0087426253887297E-002
   271.00000000000000        5.4222135784116963E-002
   272.00000000000000        5.8335433046455026E-002
   273.00000000000000        6.2411631225316337E-002
   274.00000000000000        6.6436415011395078E-002
   275.00000000000000        7.0396768969616844E-002
   276.00000000000000        7.4280908379068949E-002
   277.00000000000000        7.8078212514012507E-002
   278.00000000000000        8.1779160331818285E-002
   279.00000000000000        8.5375268530854823E-002
   280.00000000000000        8.8859031938685704E-002
   281.00000000000000        9.2223866188607867E-002
   282.00000000000000        9.5464052640669428E-002
   283.00000000000000        9.8574685501345599E-002
   284.00000000000000       0.10155162109473771     
   285.00000000000000       0.10439142923668279     
   286.00000000000000       0.10709134666222613     
   287.00000000000000       0.10964923245595240     
   288.00000000000000       0.11206352543395143     
   289.00000000000000       0.11433320342577102     
   290.00000000000000       0.11645774440428701     
   291.00000000000000       0.11843708941110483     
   292.00000000000000       0.12027160722529251     
   293.00000000000000       0.12196206072298994     
   294.00000000000000       0.12350957487584084     
   295.00000000000000       0.12491560633629545     
   296.00000000000000       0.12618191455839164     
   297.00000000000000       0.12731053440283407     
   298.00000000000000       0.12830375017598761     
   299.00000000000000       0.12916407105284233     
   300.00000000000000       0.12989420783474015     
   301.00000000000000       0.13049705099344175     
   302.00000000000000       0.13097564995381089     
   303.00000000000000       0.13133319356835554     
   304.00000000000000       0.13157299173760309     
   305.00000000000000       0.13169845813136147     
   306.00000000000000       0.13171309396676190     
   307.00000000000000       0.13162047279996270     
   308.00000000000000       0.13142422628949066     
   309.00000000000000       0.13112803089005609     
   310.00000000000000       0.13073559543689756     
   311.00000000000000       0.13025064958156424     
   312.00000000000000       0.12967693304126626     
   313.00000000000000       0.12901818562485531     
   314.00000000000000       0.12827813799964574     
   315.00000000000000       0.12746050316427138     
   316.00000000000000       0.12656896859386535     
   317.00000000000000       0.12560718902494669     
   318.00000000000000       0.12457877984831876     
   319.00000000000000       0.12348731107943801     
   320.00000000000000       0.12233630187669542     
   321.00000000000000       0.12112921557900361     
   322.00000000000000       0.11986945523522020     
   323.00000000000000       0.11856035959874547     
   324.00000000000000       0.11720519956176122     
   325.00000000000000       0.11580717500442161     
   326.00000000000000       0.11436941203527839     
   327.00000000000000       0.11289496060017065     
   328.00000000000000       0.11138679243760986     
   329.00000000000000       0.10984779935969712     
   330.00000000000000       0.10828079183834104     
   331.00000000000000       0.10668849787747714     
   332.00000000000000       0.10507356215273531     
   333.00000000000000       0.10343854540086553     
   334.00000000000000       0.10178592404192034     
   335.00000000000000       0.10011809001802982     
   336.00000000000000        9.8437350833286141E-002
   337.00000000000000        9.6745929779967196E-002
   338.00000000000000        9.5045966337044527E-002
   339.00000000000000        9.3339516727561189E-002
   340.00000000000000        9.1628554622121994E-002
   341.00000000000000        8.9914971976371272E-002
   342.00000000000000        8.8200579990929076E-002
   343.00000000000000        8.6487110182849991E-002
   344.00000000000000        8.4776215558213047E-002
   345.00000000000000        8.3069471876041481E-002
   346.00000000000000        8.1368378994218185E-002
   347.00000000000000        7.9674362288631215E-002
   348.00000000000000        7.7988774137193045E-002
   349.00000000000000        7.6312895460958735E-002
   350.00000000000000        7.4647937314888238E-002
   351.00000000000000        7.2995042521341938E-002
   352.00000000000000        7.1355287339756809E-002
   353.00000000000000        6.9729683166358414E-002
   354.00000000000000        6.8119178258154098E-002
   355.00000000000000        6.6524659475836814E-002
   356.00000000000000        6.4946954040523822E-002
   357.00000000000000        6.3386831299665491E-002
   358.00000000000000        6.1845004497728749E-002
   359.00000000000000        6.0322132547560921E-002
   360.00000000000000        5.8818821798697137E-002
   361.00000000000000        5.7335627799059756E-002
   362.00000000000000        5.5873057046852775E-002
   363.00000000000000        5.4431568729645635E-002
   364.00000000000000        5.3011576447914439E-002
   365.00000000000000        5.1613449920525217E-002
   366.00000000000000        5.0237516669867519E-002
   367.00000000000000        4.8884063684540631E-002
   368.00000000000000        4.7553339057719281E-002
   369.00000000000000        4.6245553599472279E-002
   370.00000000000000        4.4960882421510029E-002
   371.00000000000000        4.3699466493001674E-002
   372.00000000000000        4.2461414166247539E-002
   373.00000000000000        4.1246802671143154E-002
   374.00000000000000        4.0055679577520854E-002
   375.00000000000000        3.8888064224577246E-002
   376.00000000000000        3.7743949116709426E-002
