# Recoil energy (kev)        Event rate (events/gev)
   1.0000000000000000        483932.08274995734     
   2.0000000000000000        455193.88357151486     
   3.0000000000000000        428036.73660934996     
   4.0000000000000000        402380.25396342343     
   5.0000000000000000        378147.79269028775     
   6.0000000000000000        355266.29848608299     
   7.0000000000000000        333666.15487867023     
   8.0000000000000000        313281.03779734467     
   9.0000000000000000        294047.77538714890     
   10.000000000000000        275906.21293385478     
   11.000000000000000        258799.08276518062     
   12.000000000000000        242671.87899367942     
   13.000000000000000        227472.73696698589     
   14.000000000000000        213152.31729166408     
   15.000000000000000        199663.69429775694     
   16.000000000000000        186962.24881225263     
   17.000000000000000        175005.56511102940     
   18.000000000000000        163753.33192040346     
   19.000000000000000        153167.24734113654     
   20.000000000000000        143210.92756967735     
   21.000000000000000        133849.81929344151     
   22.000000000000000        125051.11563912044     
   23.000000000000000        116783.67555527057     
   24.000000000000000        109017.94651281406     
   25.000000000000000        101725.89040951480     
   26.000000000000000        94880.912567004110     
   27.000000000000000        88457.793711479710     
   28.000000000000000        82432.624831802081     
   29.000000000000000        76782.744811325538     
   30.000000000000000        71486.680732449691     
   31.000000000000000        66524.090755522062     
   32.000000000000000        61875.709476381759     
   33.000000000000000        57523.295669477680     
   34.000000000000000        53449.582326138720     
   35.000000000000000        49638.228900192247     
   36.000000000000000        46073.775675726589     
   37.000000000000000        42741.600174371051     
   38.000000000000000        39627.875522006550     
   39.000000000000000        36719.530697330330     
   40.000000000000000        34004.212587172166     
   41.000000000000000        31470.249775888558     
   42.000000000000000        29106.617998552421     
   43.000000000000000        26902.907189999714     
   44.000000000000000        24849.290064092849     
   45.000000000000000        22936.492159810543     
   46.000000000000000        21155.763292974898     
   47.000000000000000        19498.850354576058     
   48.000000000000000        17957.971398756497     
   49.000000000000000        16525.790965562315     
   50.000000000000000        15195.396585566628     
   51.000000000000000        13960.276415414177     
   52.000000000000000        12814.297955225444     
   53.000000000000000        11751.687800641414     
   54.000000000000000        10767.012384074107     
   55.000000000000000        9855.1596614658520     
   56.000000000000000        9011.3217025439644     
   57.000000000000000        8230.9781441910200     
   58.000000000000000        7509.8804681347146     
   59.000000000000000        6844.0370656954647     
   60.000000000000000        6229.6990538148748     
   61.000000000000000        5663.3468080258399     
   62.000000000000000        5141.6771794151309     
   63.000000000000000        4661.5913639732034     
   64.000000000000000        4220.1833940247225     
   65.000000000000000        3814.7292226874197     
   66.000000000000000        3442.6763735174827     
   67.000000000000000        3101.6341286682446     
   68.000000000000000        2789.3642300156848     
   69.000000000000000        2503.7720687904057     
   70.000000000000000        2242.8983403031016     
   71.000000000000000        2004.9111413589046     
   72.000000000000000        1788.0984889272363     
   73.000000000000000        1590.8612395686189     
   74.000000000000000        1411.7063900196874     
   75.000000000000000        1249.2407402025124     
   76.000000000000000        1102.1649007567423     
   77.000000000000000        969.26762799244182     
   78.000000000000000        849.42046992999758     
   79.000000000000000        741.57270783150466     
   80.000000000000000        644.74657833671154     
   81.000000000000000        558.03276199680113     
   82.000000000000000        480.58612465214867     
   83.000000000000000        411.62169872624122     
   84.000000000000000        350.41089210854631     
   85.000000000000000        296.27791287468830     
   86.000000000000000        248.59639864407305     
   87.000000000000000        206.78623990366691     
   88.000000000000000        170.31058713294152     
   89.000000000000000        138.67303204978231     
   90.000000000000000        111.41495376122931     
   91.000000000000000        88.113021047047397     
   92.000000000000000        68.376842428946063     
   93.000000000000000        51.846756084681154     
   94.000000000000000        38.191752054804475     
   95.000000000000000        27.107519561236963     
   96.000000000000000        18.314612611781609     
   97.000000000000000        11.556727403797396     
   98.000000000000000        6.5990853641184994     
   99.000000000000000        3.2269159715732987     
   100.00000000000000        1.2440338036513874     
   101.00000000000000       0.47150453061912584     
   102.00000000000000       0.74639484916903853     
   103.00000000000000        1.9206016040844531     
   104.00000000000000        3.8597555908833421     
   105.00000000000000        6.4421957654814408     
   106.00000000000000        9.5580098090553669     
   107.00000000000000        13.108137207939599     
   108.00000000000000        17.003531210019982     
   109.00000000000000        21.164376211084459     
   110.00000000000000        25.519357307405652     
   111.00000000000000        30.004978924818307     
   112.00000000000000        34.564929600135343     
   113.00000000000000        39.149490148252376     
   114.00000000000000        43.714982598086557     
   115.00000000000000        48.223257422951257     
   116.00000000000000        52.641216726337142     
   117.00000000000000        56.940371172757544     
   118.00000000000000        61.096428575543037     
   119.00000000000000        65.088912169580851     
   120.00000000000000        68.900806707231325     
   121.00000000000000        72.518230620322143     
   122.00000000000000        75.930132590424662     
   123.00000000000000        79.128010963861115     
   124.00000000000000        82.105654537257777     
   125.00000000000000        84.858903324219483     
   126.00000000000000        87.385427994043596     
   127.00000000000000        89.684526749519918     
   128.00000000000000        91.756938483020335     
   129.00000000000000        93.604671118386776     
   130.00000000000000        95.230844110840309     
   131.00000000000000        96.639544138363135     
   132.00000000000000        97.835693075970525     
   133.00000000000000        98.824927399101597     
   134.00000000000000        99.613488214230401     
   135.00000000000000        100.20812116380274     
   136.00000000000000        100.61598549895382     
   137.00000000000000        100.84457165723086     
   138.00000000000000        100.90162672391224     
   139.00000000000000        100.79508719454452     
   140.00000000000000        100.53301849319126     
   141.00000000000000        100.12356073565978     
   142.00000000000000        99.574880259781906     
   143.00000000000000        98.895126475765679     
   144.00000000000000        98.092393618778985     
   145.00000000000000        97.174687013438017     
   146.00000000000000        96.149893485710720     
   147.00000000000000        95.025755582169808     
   148.00000000000000        93.809849279420632     
   149.00000000000000        92.509564888141455     
   150.00000000000000        91.132090876463039     
   151.00000000000000        89.684400356497861     
   152.00000000000000        88.173239995754912     
   153.00000000000000        86.605121132030362     
   154.00000000000000        84.986312886169685     
   155.00000000000000        83.322837081943661     
   156.00000000000000        81.620464796195392     
   157.00000000000000        79.884714375484009     
   158.00000000000000        78.120850767657373     
   159.00000000000000        76.333886028274918     
   160.00000000000000        74.528580872499916     
   161.00000000000000        72.709447153141184     
   162.00000000000000        70.880751154889623     
   163.00000000000000        69.046517603588370     
   164.00000000000000        67.210534297552883     
   165.00000000000000        65.376357275616641     
   166.00000000000000        63.547316443714337     
   167.00000000000000        61.726521588469907     
   168.00000000000000        59.916868712449713     
   169.00000000000000        58.121046631524692     
   170.00000000000000        56.341543780149721     
   171.00000000000000        54.580655175358011     
   172.00000000000000        52.840489494919737     
   173.00000000000000        51.122976229402049     
   174.00000000000000        49.429872871875190     
   175.00000000000000        47.762772112699025     
   176.00000000000000        46.123109010253508     
   177.00000000000000        44.512168111638047     
   178.00000000000000        42.931090500296051     
   179.00000000000000        41.380880750211702     
   180.00000000000000        39.862413768820439     
   181.00000000000000        38.376441513056427     
   182.00000000000000        36.923599565072415     
   183.00000000000000        35.504413556092480     
   184.00000000000000        34.119305428628721     
   185.00000000000000        32.768599528919232     
   186.00000000000000        31.452528522914374     
   187.00000000000000        30.171239130496058     
   188.00000000000000        28.924797673833332     
   189.00000000000000        27.713195436902577     
   190.00000000000000        26.536353834195555     
   191.00000000000000        25.394129387561470     
   192.00000000000000        24.286318510945058     
   193.00000000000000        23.212662103514671     
   194.00000000000000        22.172849952342805     
   195.00000000000000        21.166524946377542     
   196.00000000000000        20.193287103969119     
   197.00000000000000        19.252697416675147     
   198.00000000000000        18.344281512464768     
   199.00000000000000        17.467533141793620     
   200.00000000000000        16.621917490326595     
   201.00000000000000        15.806874322336874     
   202.00000000000000        15.021820959029812     
   203.00000000000000        14.266155096218665     
   204.00000000000000        13.539257465928392     
   205.00000000000000        12.840494346612017     
   206.00000000000000        12.169219926758590     
   207.00000000000000        11.524778526727260     
   208.00000000000000        10.906506683684146     
   209.00000000000000        10.313735104532581     
   210.00000000000000        9.7457904917289166     
   211.00000000000000        9.2019972468542868     
   212.00000000000000        8.6816790567823219     
   213.00000000000000        8.1841603672331544     
   214.00000000000000        7.7087677484450525     
   215.00000000000000        7.2548311576272564     
   216.00000000000000        6.8216851027753718     
   217.00000000000000        6.4086697123473160     
   218.00000000000000        6.0151317151993506     
   219.00000000000000        5.6404253350858475     
   220.00000000000000        5.2839131039188629     
   221.00000000000000        4.9449665978742914     
   222.00000000000000        4.6229671003206221     
   223.00000000000000        4.3173061954292349     
   224.00000000000000        4.0273862962080296     
   225.00000000000000        3.7526211105826981     
   226.00000000000000        3.4924360490288580     
   227.00000000000000        3.2462685771392623     
   228.00000000000000        3.0135685163893613     
   229.00000000000000        2.7937982962463854     
   230.00000000000000        2.5864331606463749     
   231.00000000000000        2.3909613317478122     
   232.00000000000000        2.2068841337534071     
   233.00000000000000        2.0337160794762190     
   234.00000000000000        1.8709849222153847     
   235.00000000000000        1.7182316753942679     
   236.00000000000000        1.5750106023059292     
   237.00000000000000        1.4408891782053219     
   238.00000000000000        1.3154480268827289     
   239.00000000000000        1.1982808337528605     
   240.00000000000000        1.0889942373953136     
   241.00000000000000       0.98720770138597858     
   242.00000000000000       0.89255336816672859     
   243.00000000000000       0.80467589661028605     
   244.00000000000000       0.72323228484965674     
   245.00000000000000       0.64789167985768570     
   246.00000000000000       0.57833517518030542     
   247.00000000000000       0.51425559814813970     
   248.00000000000000       0.45535728781619400     
   249.00000000000000       0.40135586480707941     
   250.00000000000000       0.35197799416368936     
   251.00000000000000       0.30696114224962612     
   252.00000000000000       0.26605332867068449     
   253.00000000000000       0.22901287412847479     
   254.00000000000000       0.19560814505783025     
   255.00000000000000       0.16561729584273080     
   256.00000000000000       0.13882800935056525     
   257.00000000000000       0.11503723647291549     
   258.00000000000000        9.4050935311160017E-002
   259.00000000000000        7.5683810597613158E-002
   260.00000000000000        5.9759053898319786E-002
   261.00000000000000        4.6108085100078265E-002
   262.00000000000000        3.4570295643940409E-002
   263.00000000000000        2.4992793928412433E-002
   264.00000000000000        1.7230153268898554E-002
   265.00000000000000        1.1144162765162200E-002
   266.00000000000000        6.6035813954592754E-003
   267.00000000000000        3.4838956249872012E-003
   268.00000000000000        1.6670807867092479E-003
   269.00000000000000        1.0413664649112600E-003
   270.00000000000000        1.5010060856234565E-003
   271.00000000000000        2.9460508934296237E-003
   272.00000000000000        5.2821284709982401E-003
   273.00000000000000        8.4202259359416991E-003
   274.00000000000000        1.2276477929221492E-002
   275.00000000000000        1.6771959490210202E-002
   276.00000000000000        2.1832483895735267E-002
   277.00000000000000        2.7388405523732548E-002
   278.00000000000000        3.3374427786624250E-002
   279.00000000000000        3.9729416165147816E-002
   280.00000000000000        4.6396216359960461E-002
   281.00000000000000        5.3321477565852426E-002
   282.00000000000000        6.0455480862104428E-002
   283.00000000000000        6.7751972701717678E-002
   284.00000000000000        7.5168003472735653E-002
   285.00000000000000        8.2663771095737901E-002
   286.00000000000000        9.0202469613595029E-002
   287.00000000000000        9.7750142721993380E-002
   288.00000000000000       0.10527554218250132     
   289.00000000000000       0.11274999105386907     
   290.00000000000000       0.12014725167175262     
   291.00000000000000       0.12744339830188381     
   292.00000000000000       0.13461669438774138     
   293.00000000000000       0.14164747430941699     
   294.00000000000000       0.14851802956729221     
   295.00000000000000       0.15521249930097325     
   296.00000000000000       0.16171676505159951     
   297.00000000000000       0.16801834967317769     
   298.00000000000000       0.17410632029716752     
   299.00000000000000       0.17997119525285998     
   300.00000000000000       0.18560485484503317     
   301.00000000000000       0.19100045588964670     
   302.00000000000000       0.19615234990763852     
   303.00000000000000       0.20105600487679201     
   304.00000000000000       0.20570793044137131     
   305.00000000000000       0.21010560647963902     
   306.00000000000000       0.21424741492959790     
   307.00000000000000       0.21813257477382125     
   308.00000000000000       0.22176108008521236     
   309.00000000000000       0.22513364103606429     
   310.00000000000000       0.22825162777422511     
   311.00000000000000       0.23111701707093479     
   312.00000000000000       0.23373234164654380     
   313.00000000000000       0.23610064208140547     
   314.00000000000000       0.23822542122095619     
   315.00000000000000       0.24011060098534248     
   316.00000000000000       0.24176048149571500     
   317.00000000000000       0.24317970243106332     
   318.00000000000000       0.24437320653098332     
   319.00000000000000       0.24534620516182448     
   320.00000000000000       0.24610414586538526     
   321.00000000000000       0.24665268181112515     
   322.00000000000000       0.24699764307499955     
   323.00000000000000       0.24714500966961184     
   324.00000000000000       0.24710088625261373     
   325.00000000000000       0.24687147844206117     
   326.00000000000000       0.24646307066937395     
   327.00000000000000       0.24588200550266043     
   328.00000000000000       0.24513466437482193     
   329.00000000000000       0.24422744965312768     
   330.00000000000000       0.24316676798856962     
   331.00000000000000       0.24195901488543184     
   332.00000000000000       0.24061056043323989     
   333.00000000000000       0.23912773614530916     
   334.00000000000000       0.23751682284970776     
   335.00000000000000       0.23578403958052532     
   336.00000000000000       0.23393553341897499     
   337.00000000000000       0.23197737023564857     
   338.00000000000000       0.22991552628703565     
   339.00000000000000       0.22775588062105223     
   340.00000000000000       0.22550420824803305     
   341.00000000000000       0.22316617403526959     
   342.00000000000000       0.22074732728477411     
   343.00000000000000       0.21825309695552836     
   344.00000000000000       0.21568878749295836     
   345.00000000000000       0.21305957522995289     
   346.00000000000000       0.21037050532510643     
   347.00000000000000       0.20762648920537649     
   348.00000000000000       0.20483230248158801     
   349.00000000000000       0.20199258330679018     
   350.00000000000000       0.19911183114848477     
   351.00000000000000       0.19619440594726659     
   352.00000000000000       0.19324452763551578     
   353.00000000000000       0.19026627599098181     
   354.00000000000000       0.18726359080128782     
   355.00000000000000       0.18424027231653456     
   356.00000000000000       0.18119998196813825     
   357.00000000000000       0.17814624333325951     
   358.00000000000000       0.17508244332507414     
   359.00000000000000       0.17201183359010114     
   360.00000000000000       0.16893753209489878     
   361.00000000000000       0.16586252488513345     
   362.00000000000000       0.16278966800110792     
   363.00000000000000       0.15972168953454136     
   364.00000000000000       0.15666119181227875     
   365.00000000000000       0.15361065369337451     
   366.00000000000000       0.15057243296673872     
   367.00000000000000       0.14754876883726312     
   368.00000000000000       0.14454178448907540     
   369.00000000000000       0.14155348971517237     
   370.00000000000000       0.13858578360335985     
   371.00000000000000       0.13564045726907334     
   372.00000000000000       0.13271919662617571     
   373.00000000000000       0.12982358518742762     
   374.00000000000000       0.12695510688687442     
   375.00000000000000       0.12411514891689024     
   376.00000000000000       0.12130500457309160     
