# Recoil energy (kev)        Event rate (events/gev)
   1.0000000000000000        3.4933829521049715E-009
   2.0000000000000000        2.6632072723507015E-008
   3.0000000000000000        8.5639725084599784E-008
   4.0000000000000000        1.9338143134790484E-007
   5.0000000000000000        3.5974431665446165E-007
   6.0000000000000000        5.9198632410939658E-007
   7.0000000000000000        8.9505535012795718E-007
   8.0000000000000000        1.2718807756003537E-006
   9.0000000000000000        1.7236393184087487E-006
   10.000000000000000        2.2499970188877007E-006
   11.000000000000000        2.8493290614626022E-006
   12.000000000000000        3.5189190328802107E-006
   13.000000000000000        4.2551391199840306E-006
   14.000000000000000        5.0536126576689644E-006
   15.000000000000000        5.9093603502499714E-006
   16.000000000000000        6.8169314067745783E-006
   17.000000000000000        7.7705207525806888E-006
   18.000000000000000        8.7640734054376472E-006
   19.000000000000000        9.7913770347069526E-006
   20.000000000000000        1.0846143655923163E-005
   21.000000000000000        1.1922081350838240E-005
   22.000000000000000        1.3012956844113945E-005
   23.000000000000000        1.4112649712315332E-005
   24.000000000000000        1.5215198948486616E-005
   25.000000000000000        1.6314842556226018E-005
   26.000000000000000        1.7406050800662853E-005
   27.000000000000000        1.8483553699936086E-005
   28.000000000000000        1.9542363299543488E-005
   29.000000000000000        2.0577791233137240E-005
   30.000000000000000        2.1585462036868411E-005
   31.000000000000000        2.2561322650096547E-005
   32.000000000000000        2.3501648503084435E-005
   33.000000000000000        2.4403046562063924E-005
   34.000000000000000        2.5262455673698677E-005
   35.000000000000000        2.6077144524374379E-005
   36.000000000000000        2.6844707504823776E-005
   37.000000000000000        2.7563058747258774E-005
   38.000000000000000        2.8230424580336759E-005
   39.000000000000000        2.8845334626866136E-005
   40.000000000000000        2.9406611750064403E-005
   41.000000000000000        2.9913361036359296E-005
   42.000000000000000        3.0364957986088741E-005
   43.000000000000000        3.0761036067949834E-005
   44.000000000000000        3.1101473778601914E-005
   45.000000000000000        3.1386381335381296E-005
   46.000000000000000        3.1616087117588246E-005
   47.000000000000000        3.1791123960190644E-005
   48.000000000000000        3.1912215393013262E-005
   49.000000000000000        3.1980261908494088E-005
   50.000000000000000        3.1996327331835360E-005
   51.000000000000000        3.1961625358829893E-005
   52.000000000000000        3.1877506318734179E-005
   53.000000000000000        3.1745444212283028E-005
   54.000000000000000        3.1567024068218709E-005
   55.000000000000000        3.1343929655543581E-005
   56.000000000000000        3.1077931583034435E-005
   57.000000000000000        3.0770875812364992E-005
   58.000000000000000        3.0424672606432477E-005
   59.000000000000000        3.0041285930147237E-005
   60.000000000000000        2.9622723316998079E-005
   61.000000000000000        2.9171026211111070E-005
   62.000000000000000        2.8688260791276582E-005
   63.000000000000000        2.8176509280473119E-005
   64.000000000000000        2.7637861741776681E-005
   65.000000000000000        2.7074408359166806E-005
   66.000000000000000        2.6488232199620505E-005
   67.000000000000000        2.5881402450997415E-005
   68.000000000000000        2.5255968128547972E-005
   69.000000000000000        2.4613952241409578E-005
   70.000000000000000        2.3957346409169593E-005
   71.000000000000000        2.3288105917464569E-005
   72.000000000000000        2.2608145200630546E-005
   73.000000000000000        2.1919333738611235E-005
   74.000000000000000        2.1223492354659074E-005
   75.000000000000000        2.0522389899810481E-005
   76.000000000000000        1.9817740309681549E-005
   77.000000000000000        1.9111200018791613E-005
   78.000000000000000        1.8404365717383988E-005
   79.000000000000000        1.7698772435553497E-005
   80.000000000000000        1.6995891939413816E-005
   81.000000000000000        1.6297131424026687E-005
   82.000000000000000        1.5603832487870139E-005
   83.000000000000000        1.4917270373733012E-005
   84.000000000000000        1.4238653461083775E-005
   85.000000000000000        1.3569122995168153E-005
   86.000000000000000        1.2909753038335918E-005
   87.000000000000000        1.2261550629378583E-005
   88.000000000000000        1.1625456136970441E-005
   89.000000000000000        1.1002343793645002E-005
   90.000000000000000        1.0393022397098599E-005
   91.000000000000000        9.7982361659934945E-006
   92.000000000000000        9.2186657378288633E-006
   93.000000000000000        8.6549292968568707E-006
   94.000000000000000        8.1075838204411071E-006
   95.000000000000000        7.5771264326802064E-006
   96.000000000000000        7.0639958545536309E-006
   97.000000000000000        6.5685739402818900E-006
   98.000000000000000        6.0911872900301184E-006
   99.000000000000000        5.6321089295226976E-006
   100.00000000000000        5.1915600475709629E-006
   101.00000000000000        4.7697117829482805E-006
   102.00000000000000        4.3666870524748281E-006
   103.00000000000000        3.9825624125971178E-006
   104.00000000000000        3.6173699471618568E-006
   105.00000000000000        3.2710991744927001E-006
   106.00000000000000        2.9436989672784952E-006
   107.00000000000000        2.6350794791720597E-006
   108.00000000000000        2.3451140723806257E-006
   109.00000000000000        2.0736412409003922E-006
   110.00000000000000        1.8204665244088703E-006
   111.00000000000000        1.5853644081789185E-006
   112.00000000000000        1.3680802047181758E-006
   113.00000000000000        1.1683319131645655E-006
   114.00000000000000        9.8581205278683690E-007
   115.00000000000000        8.2018946724274864E-007
   116.00000000000000        6.7111109654168512E-007
   117.00000000000000        5.3820371394057187E-007
   118.00000000000000        4.2107562527170903E-007
   119.00000000000000        3.1931832846060910E-007
   120.00000000000000        2.3250813123863023E-007
   121.00000000000000        1.6020772529180368E-007
   122.00000000000000        1.0196771531167460E-007
   123.00000000000000        5.7328101628015054E-008
   124.00000000000000        2.5819715306371341E-008
   125.00000000000000        6.9656047855832013E-009
   126.00000000000000        2.8237331262873210E-010
   127.00000000000000        5.2814666039620902E-009
   128.00000000000000        2.1470410324430653E-008
   129.00000000000000        4.8353997127234056E-008
   130.00000000000000        8.5435423141289446E-008
   131.00000000000000        1.3221737392622166E-007
   132.00000000000000        1.8820306004018919E-007
   133.00000000000000        2.5289720248226997E-007
   134.00000000000000        3.2580696837925020E-007
   135.00000000000000        4.0644285738706623E-007
   136.00000000000000        4.9431953936950014E-007
   137.00000000000000        5.8895664400213585E-007
   138.00000000000000        6.8987950302755931E-007
   139.00000000000000        7.9661984595893989E-007
   140.00000000000000        9.0871645009414426E-007
   141.00000000000000        1.0257157457607201E-006
   142.00000000000000        1.1471723777647812E-006
   143.00000000000000        1.2726497240635718E-006
   144.00000000000000        1.4017203727228741E-006
   145.00000000000000        1.5339665582566161E-006
   146.00000000000000        1.6689805584771889E-006
   147.00000000000000        1.8063650530120846E-006
   148.00000000000000        1.9457334446638481E-006
   149.00000000000000        2.0867101448092864E-006
   150.00000000000000        2.2289308240472148E-006
   151.00000000000000        2.3720426293148937E-006
   152.00000000000000        2.5157043686999699E-006
   153.00000000000000        2.6595866651781816E-006
   154.00000000000000        2.8033720805081292E-006
   155.00000000000000        2.9467552105112592E-006
   156.00000000000000        3.0894427529610805E-006
   157.00000000000000        3.2311535492972544E-006
   158.00000000000000        3.3716186013710297E-006
   159.00000000000000        3.5105810644159531E-006
   160.00000000000000        3.6477962174242659E-006
   161.00000000000000        3.7830314120932808E-006
   162.00000000000000        3.9160660014888383E-006
   163.00000000000000        4.0466912495537517E-006
   164.00000000000000        4.1747102225689038E-006
   165.00000000000000        4.2999376636531302E-006
   166.00000000000000        4.4221998513652840E-006
   167.00000000000000        4.5413344434481750E-006
   168.00000000000000        4.6571903067292084E-006
   169.00000000000000        4.7696273341681160E-006
   170.00000000000000        4.8785162500148140E-006
   171.00000000000000        4.9837384040151774E-006
   172.00000000000000        5.0851855555746037E-006
   173.00000000000000        5.1827596487622720E-006
   174.00000000000000        5.2763725790110315E-006
   175.00000000000000        5.3659459523401926E-006
   176.00000000000000        5.4514108379001456E-006
   177.00000000000000        5.5327075146099640E-006
   178.00000000000000        5.6097852126304146E-006
   179.00000000000000        5.6826018503874246E-006
   180.00000000000000        5.7511237678324176E-006
   181.00000000000000        5.8153254565985788E-006
   182.00000000000000        5.8751892876843474E-006
   183.00000000000000        5.9307052372677302E-006
   184.00000000000000        5.9818706112287206E-006
   185.00000000000000        6.0286897689298293E-006
   186.00000000000000        6.0711738467783553E-006
   187.00000000000000        6.1093404820684455E-006
   188.00000000000000        6.1432135375755947E-006
   189.00000000000000        6.1728228273503882E-006
   190.00000000000000        6.1982038441349147E-006
   191.00000000000000        6.2193974887999653E-006
   192.00000000000000        6.2364498021793179E-006
   193.00000000000000        6.2494116996521324E-006
   194.00000000000000        6.2583387088046721E-006
   195.00000000000000        6.2632907104785755E-006
   196.00000000000000        6.2643316834928598E-006
   197.00000000000000        6.2615294533058010E-006
   198.00000000000000        6.2549554448632282E-006
   199.00000000000000        6.2446844398590368E-006
   200.00000000000000        6.2307943386166960E-006
   201.00000000000000        6.2133659267809719E-006
   202.00000000000000        6.1924826469915244E-006
   203.00000000000000        6.1682303756941929E-006
   204.00000000000000        6.1406972052275650E-006
   205.00000000000000        6.1099732313083987E-006
   206.00000000000000        6.0761503460228017E-006
   207.00000000000000        6.0393220364165486E-006
   208.00000000000000        5.9995831887634042E-006
   209.00000000000000        5.9570298985766767E-006
   210.00000000000000        5.9117592864169560E-006
   211.00000000000000        5.8638693195362753E-006
   212.00000000000000        5.8134586393871024E-006
   213.00000000000000        5.7606263950143230E-006
   214.00000000000000        5.7054720823359307E-006
   215.00000000000000        5.6480953893103142E-006
   216.00000000000000        5.5885960469763618E-006
   217.00000000000000        5.5270736863450486E-006
   218.00000000000000        5.4636277011116365E-006
   219.00000000000000        5.3983571161502083E-006
   220.00000000000000        5.3313604617440269E-006
   221.00000000000000        5.2627356534984747E-006
   222.00000000000000        5.1925798778768178E-006
   223.00000000000000        5.1209894832920085E-006
   224.00000000000000        5.0480598766825914E-006
   225.00000000000000        4.9738854254954972E-006
   226.00000000000000        4.8985593649923122E-006
   227.00000000000000        4.8221737107927660E-006
   228.00000000000000        4.7448191765633133E-006
   229.00000000000000        4.6665850967556013E-006
   230.00000000000000        4.5875593542960927E-006
   231.00000000000000        4.5078283131244901E-006
   232.00000000000000        4.4274767554761316E-006
   233.00000000000000        4.3465878238005567E-006
   234.00000000000000        4.2652429672070123E-006
   235.00000000000000        4.1835218923240706E-006
   236.00000000000000        4.1015025184609414E-006
   237.00000000000000        4.0192609369546302E-006
   238.00000000000000        3.9368713745876953E-006
   239.00000000000000        3.8544061609585916E-006
   240.00000000000000        3.7719356996876242E-006
   241.00000000000000        3.6895284433399858E-006
   242.00000000000000        3.6072508719469785E-006
   243.00000000000000        3.5251674750077415E-006
   244.00000000000000        3.4433407368518171E-006
   245.00000000000000        3.3618311252455759E-006
   246.00000000000000        3.2806970831237586E-006
   247.00000000000000        3.1999950233297140E-006
   248.00000000000000        3.1197793262478456E-006
   249.00000000000000        3.0401023402125315E-006
   250.00000000000000        2.9610143845798434E-006
   251.00000000000000        2.8825637553482327E-006
   252.00000000000000        2.8047967332168084E-006
   253.00000000000000        2.7277575939703183E-006
   254.00000000000000        2.6514886210824600E-006
   255.00000000000000        2.5760301204294796E-006
   256.00000000000000        2.5014204370088530E-006
   257.00000000000000        2.4276959735590661E-006
   258.00000000000000        2.3548912109783465E-006
   259.00000000000000        2.2830387304420687E-006
   260.00000000000000        2.2121692371209926E-006
   261.00000000000000        2.1423115854037592E-006
   262.00000000000000        2.0734928055297016E-006
   263.00000000000000        2.0057381315400835E-006
   264.00000000000000        1.9390710304575421E-006
   265.00000000000000        1.8735132326064570E-006
   266.00000000000000        1.8090847629884262E-006
   267.00000000000000        1.7458039736297825E-006
   268.00000000000000        1.6836875768200066E-006
   269.00000000000000        1.6227506791623793E-006
   270.00000000000000        1.5630068163603048E-006
   271.00000000000000        1.5044679886650838E-006
   272.00000000000000        1.4471446969131729E-006
   273.00000000000000        1.3910459790833823E-006
   274.00000000000000        1.3361794473062794E-006
   275.00000000000000        1.2825513252611057E-006
   276.00000000000000        1.2301664858968535E-006
   277.00000000000000        1.1790284894171052E-006
   278.00000000000000        1.1291396214700293E-006
   279.00000000000000        1.0805009314875068E-006
   280.00000000000000        1.0331122711189305E-006
   281.00000000000000        9.8697233270813293E-007
   282.00000000000000        9.4207868776345190E-007
   283.00000000000000        8.9842782537324600E-007
   284.00000000000000        8.5601519052126257E-007
   285.00000000000000        8.1483522225837987E-007
   286.00000000000000        7.7488139168900299E-007
   287.00000000000000        7.3614623973255438E-007
   288.00000000000000        6.9862141462258207E-007
   289.00000000000000        6.6229770910745073E-007
   290.00000000000000        6.2716509731904293E-007
   291.00000000000000        5.9321277127723647E-007
   292.00000000000000        5.6042917700000268E-007
   293.00000000000000        5.2880205019055832E-007
   294.00000000000000        4.9831845147498238E-007
   295.00000000000000        4.6896480116490872E-007
   296.00000000000000        4.4072691352217461E-007
   297.00000000000000        4.1359003050317483E-007
   298.00000000000000        3.8753885496303788E-007
   299.00000000000000        3.6255758330038632E-007
   300.00000000000000        3.3862993752561469E-007
   301.00000000000000        3.1573919673677524E-007
   302.00000000000000        2.9386822798833525E-007
   303.00000000000000        2.7299951653988410E-007
   304.00000000000000        2.5311519547266844E-007
   305.00000000000000        2.3419707466357932E-007
   306.00000000000000        2.1622666910695828E-007
   307.00000000000000        1.9918522657616311E-007
   308.00000000000000        1.8305375461773287E-007
   309.00000000000000        1.6781304687218962E-007
   310.00000000000000        1.5344370871655158E-007
   311.00000000000000        1.3992618222462787E-007
   312.00000000000000        1.2724077044218053E-007
   313.00000000000000        1.1536766097497991E-007
   314.00000000000000        1.0428694888859541E-007
   315.00000000000000        9.3978658919821308E-008
   316.00000000000000        8.4422767000196051E-008
   317.00000000000000        7.5599221093138759E-008
   318.00000000000000        6.7487961346808752E-008
   319.00000000000000        6.0068939565528427E-008
   320.00000000000000        5.3322138003408702E-008
   321.00000000000000        4.7227587484335155E-008
   322.00000000000000        4.1765384853180614E-008
   323.00000000000000        3.6915709763650410E-008
   324.00000000000000        3.2658840808776661E-008
   325.00000000000000        2.8975171000523008E-008
   326.00000000000000        2.5845222605548657E-008
   327.00000000000000        2.3249661344569745E-008
   328.00000000000000        2.1169309963239546E-008
   329.00000000000000        1.9585161182862474E-008
   330.00000000000000        1.8478390039635627E-008
   331.00000000000000        1.7830365621476327E-008
   332.00000000000000        1.7622662211818584E-008
   333.00000000000000        1.7837069850062703E-008
   334.00000000000000        1.8455604318653463E-008
   335.00000000000000        1.9460516567008169E-008
   336.00000000000000        2.0834301582755617E-008
   337.00000000000000        2.2559706720955912E-008
   338.00000000000000        2.4619739502167904E-008
   339.00000000000000        2.6997674890389867E-008
   340.00000000000000        2.9677062062060534E-008
   341.00000000000000        3.2641730677430285E-008
   342.00000000000000        3.5875796665723041E-008
   343.00000000000000        3.9363667535620302E-008
   344.00000000000000        4.3090047222640058E-008
   345.00000000000000        4.7039940485092636E-008
   346.00000000000000        5.1198656860283643E-008
   347.00000000000000        5.5551814192730019E-008
   348.00000000000000        6.0085341746076656E-008
   349.00000000000000        6.4785482910527274E-008
   350.00000000000000        6.9638797517456964E-008
   351.00000000000000        7.4632163772946005E-008
   352.00000000000000        7.9752779821877914E-008
   353.00000000000000        8.4988164954258404E-008
   354.00000000000000        9.0326160465263970E-008
   355.00000000000000        9.5754930180511585E-008
   356.00000000000000        1.0126296065799260E-007
   357.00000000000000        1.0683906107794337E-007
   358.00000000000000        1.1247236283186554E-007
   359.00000000000000        1.1815231882182030E-007
   360.00000000000000        1.2386870248097388E-007
   361.00000000000000        1.2961160652626049E-007
   362.00000000000000        1.3537144145387568E-007
   363.00000000000000        1.4113893378826432E-007
   364.00000000000000        1.4690512409493127E-007
   365.00000000000000        1.5266136476752177E-007
   366.00000000000000        1.5839931759922771E-007
   367.00000000000000        1.6411095114852065E-007
   368.00000000000000        1.6978853790907769E-007
   369.00000000000000        1.7542465129353779E-007
   370.00000000000000        1.8101216244052816E-007
   371.00000000000000        1.8654423685438238E-007
   372.00000000000000        1.9201433088656746E-007
   373.00000000000000        1.9741618806786311E-007
   374.00000000000000        2.0274383530000402E-007
   375.00000000000000        2.0799157891538899E-007
   376.00000000000000        2.1315400061329201E-007
