# Recoil energy (kev)        Event rate (events/gev)
  0.10000000000000001        322699242.07961392     
   1.1000000000000001        302807856.01976818     
   2.1000000000000001        284051052.67653507     
   3.1000000000000001        266369064.03029472     
   4.0999999999999996        249705007.85844675     
   5.0999999999999996        234004762.55469283     
   6.0999999999999996        219216846.57772997     
   7.0999999999999996        205292302.40800816     
   8.0999999999999996        192184584.89045858     
   9.0999999999999996        179849453.84105629     
   10.100000000000000        168244870.79540905     
   11.100000000000000        157330899.77815372     
   12.100000000000000        147069611.97284022     
   13.100000000000000        137424994.17307678     
   14.100000000000000        128362860.89704883     
   15.100000000000000        119850770.04904111     
   16.100000000000001        111857942.01325770     
   17.100000000000001        104355182.06708300     
   18.100000000000001        97314806.002862096     
   19.100000000000001        90710568.849342361     
   20.100000000000001        84517596.586090073     
   21.100000000000001        78712320.746401608     
   22.100000000000001        73272415.806554973     
   23.100000000000001        68176739.261579111     
   24.100000000000001        63405274.290117174     
   25.100000000000001        58939074.913384184     
   26.100000000000001        54760213.555662416     
   27.100000000000001        50851730.916231520     
   28.100000000000001        47197588.065096617     
   29.100000000000001        43782620.677338228     
   30.100000000000001        40592495.323351175     
   31.100000000000001        37613667.734689564     
   32.100000000000001        34833342.967640273     
   33.100000000000001        32239437.389049154     
   34.100000000000001        29820542.411288630     
   35.100000000000001        27565889.905586764     
   36.100000000000001        25465319.225241270     
   37.100000000000001        23509245.772501219     
   38.100000000000001        21688631.045120534     
   39.100000000000001        19994954.100770574     
   40.100000000000001        18420184.379629698     
   41.100000000000001        16956755.827562623     
   42.100000000000001        15597542.264342833     
   43.100000000000001        14335833.943369856     
   44.100000000000001        13165315.251278441     
   45.100000000000001        12080043.497738842     
   46.100000000000001        11074428.747592879     
   47.100000000000001        10143214.649275063     
   48.100000000000001        9281460.2152141705     
   49.100000000000001        8484522.5116156079     
   50.100000000000001        7748040.2166738510     
   51.100000000000001        7067918.0078690909     
   52.100000000000001        6440311.7405552976     
   53.100000000000001        5861614.3815539870     
   54.100000000000001        5328442.6629270157     
   55.100000000000001        4837624.4225132037     
   56.100000000000001        4386186.5991804395     
   57.100000000000001        3971343.8520652629     
   58.100000000000001        3590487.7743487130     
   59.100000000000001        3241176.6733494760     
   60.100000000000001        2921125.8899059580     
   61.100000000000001        2628198.6311668684     
   62.100000000000001        2360397.2920171344     
   63.100000000000001        2115855.2414339348     
   64.099999999999994        1892829.0510957928     
   65.099999999999994        1689691.1445584840     
   66.099999999999994        1504922.8462653551     
   67.099999999999994        1337107.8105770515     
   68.099999999999994        1184925.8118888827     
   69.099999999999994        1047146.8777525531     
   70.099999999999994        922625.74773504341     
   71.099999999999994        810296.64153126045     
   72.099999999999994        709168.32059991220     
   73.099999999999994        618319.42831495800     
   74.099999999999994        536894.09431850410     
   75.099999999999994        464097.78942680318     
   76.099999999999994        399193.41807898582     
   77.099999999999994        341497.63593039435     
   78.099999999999994        290377.38077859714     
   79.099999999999994        245246.60557224180     
   80.099999999999994        205563.20279098654     
   81.099999999999994        170826.11000001372     
   82.099999999999994        140572.58687585537     
   83.099999999999994        114375.65447214211     
   84.099999999999994        91841.687945310565     
   85.099999999999994        72608.154391924865     
   86.099999999999994        56341.487861965536     
   87.099999999999994        42735.094006739811     
   88.099999999999994        31507.477196872602     
   89.099999999999994        22400.483305639405     
   90.099999999999994        15177.651696520461     
   91.099999999999994        9622.6702817887581     
   92.099999999999994        5537.9278319241430     
   93.099999999999994        2743.1580141933428     
   94.099999999999994        1074.1699234724458     
   95.099999999999994        381.66013986770969     
   96.099999999999994        530.10160644461132     
   97.099999999999994        1396.7048669445724     
   98.099999999999994        2870.4474382537342     
   99.099999999999994        4851.1673160765349     
   100.09999999999999        7248.7168252371102     
   101.09999999999999        9982.1732287412287     
   102.09999999999999        12979.102702607392     
   103.09999999999999        16174.874466966741     
   104.09999999999999        19512.022038415696     
   105.09999999999999        22939.648734511829     
   106.09999999999999        26412.874718965875     
   107.09999999999999        29892.323025925452     
   108.09999999999999        33343.642144049089     
   109.09999999999999        36737.062876242111     
   110.09999999999999        40046.987319225955     
   111.09999999999999        43251.607928912024     
   112.09999999999999        46332.554753088880     
   113.09999999999999        49274.569022556403     
   114.09999999999999        52065.201395773824     
   115.09999999999999        54694.533250623121     
   116.09999999999999        57154.919510287335     
   117.09999999999999        59440.751578706600     
   118.09999999999999        61548.239044891860     
   119.09999999999999        63475.208894718904     
   120.09999999999999        65220.921043944909     
   121.09999999999999        66785.899077262802     
   122.09999999999999        68171.775145463296     
   123.09999999999999        69381.148036341663     
   124.09999999999999        70417.453495140799     
   125.09999999999999        71284.845927107905     
   126.09999999999999        71988.090668444434     
   127.09999999999999        72532.466062631094     
   128.09999999999999        72923.674626974243     
   129.09999999999999        73167.762639412351     
   130.09999999999999        73271.047518255509     
   131.09999999999999        73240.052407731346     
   132.09999999999999        73081.447420153781     
   133.09999999999999        72801.997021228366     
   134.09999999999999        72408.513078720134     
   135.09999999999999        71907.813126387075     
   136.09999999999999        71306.683424975548     
   137.09999999999999        70611.846430130929     
   138.09999999999999        69829.932303561916     
   139.09999999999999        68967.454128608952     
   140.09999999999999        68030.786514771680     
   141.09999999999999        67026.147297684380     
   142.09999999999999        65959.582061661960     
   143.09999999999999        64836.951231298059     
   144.09999999999999        63663.919496754927     
   145.09999999999999        62445.947354444041     
   146.09999999999999        61188.284560749125     
   147.09999999999999        59895.965311433305     
   148.09999999999999        58573.804973379411     
   149.09999999999999        57226.398208447034     
   150.09999999999999        55858.118341510162     
   151.09999999999999        54473.117836212601     
   152.09999999999999        53075.329752738384     
   153.09999999999999        51668.470071881689     
   154.09999999999999        50256.040779105948     
   155.09999999999999        48841.333610973947     
   156.09999999999999        47427.434374505901     
   157.09999999999999        46017.227757581990     
   158.09999999999999        44613.402555592911     
   159.09999999999999        43218.457246102676     
   160.09999999999999        41834.705849403188     
   161.09999999999999        40464.284018521648     
   162.09999999999999        39109.155307509471     
   163.09999999999999        37771.117571737246     
   164.09999999999999        36451.809458450662     
   165.09999999999999        35152.716950035159     
   166.09999999999999        33875.179926329780     
   167.09999999999999        32620.398715906023     
   168.09999999999999        31389.440609553647     
   169.09999999999999        30183.246312259318     
   170.09999999999999        29002.636312782910     
   171.09999999999999        27848.317152522450     
   172.09999999999999        26720.887577743291     
   173.09999999999999        25620.844561416088     
   174.09999999999999        24548.589182921653     
   175.09999999999999        23504.432355697361     
   176.09999999999999        22488.600394574980     
   177.09999999999999        21501.240416079410     
   178.09999999999999        20542.425566339993     
   179.09999999999999        19612.160072524155     
   180.09999999999999        18710.384114835972     
   181.09999999999999        17836.978517155938     
   182.09999999999999        16991.769255312342     
   183.09999999999999        16174.531782814731     
   184.09999999999999        15384.995174615891     
   185.09999999999999        14622.846090131445     
   186.09999999999999        13887.732557334326     
   187.09999999999999        13179.267580257387     
   188.09999999999999        12497.032572692302     
   189.09999999999999        11840.580621268686     
   190.09999999999999        11209.439581438884     
   191.09999999999999        10603.115010189233     
   192.09999999999999        10021.092939542024     
   193.09999999999999        9462.8424951231755     
   194.09999999999999        8927.8183642388503     
   195.09999999999999        8415.4631180343258     
   196.09999999999999        7925.2093924208930     
   197.09999999999999        7456.4819325210146     
   198.09999999999999        7008.6995054412209     
   199.09999999999999        6581.2766862016233     
   200.09999999999999        6173.6255216608506     
   201.09999999999999        5785.1570772598725     
   202.09999999999999        5415.2828713806593     
   203.09999999999999        5063.4162020681160     
   204.09999999999999        4728.9733708100975     
   205.09999999999999        4411.3748079974521     
   206.09999999999999        4110.0461046094342     
   207.09999999999999        3824.4189545805261     
   208.09999999999999        3553.9320122097934     
   209.09999999999999        3298.0316688704634     
   210.09999999999999        3056.1727531728475     
   211.09999999999999        2827.8191586181697     
   212.09999999999999        2612.4444026684737     
   213.09999999999999        2409.5321210373718     
   214.09999999999999        2218.5765008871149     
   215.09999999999999        2039.0826564942220     
   216.09999999999999        1870.5669508251190     
   217.09999999999999        1712.5572663370222     
   218.09999999999999        1564.5932281993926     
   219.09999999999999        1426.2263830057013     
   220.09999999999999        1297.0203359259972     
   221.09999999999999        1176.5508491288242     
   222.09999999999999        1064.4059041822070     
   223.09999999999999        960.18573102757523     
   224.09999999999999        863.50280600374595     
   225.09999999999999        773.98182128663154     
   226.09999999999999        691.25962799908245     
   227.09999999999999        614.98515513824225     
   228.09999999999999        544.81930636182744     
   229.09999999999999        480.43483657325203     
   230.09999999999999        421.51621014514029     
   231.09999999999999        367.75944252506497     
   232.09999999999999        318.87192687339621     
   233.09999999999999        274.57224729248844     
   234.09999999999999        234.58998011919340     
   235.09999999999999        198.66548466822604     
   236.09999999999999        166.54968473202243     
   237.09999999999999        138.00384206506158     
   238.09999999999999        112.79932300447091     
   239.09999999999999        90.717359306875849     
   240.09999999999999        71.548804211444093     
   241.09999999999999        55.093884672888201     
   242.09999999999999        41.161950644082928     
   243.09999999999999        29.571222227065686     
   244.09999999999999        20.148535452924051     
   245.09999999999999        12.729087395386417     
   246.09999999999999        7.1561812699459821     
   247.09999999999999        3.2809721198794066     
   248.09999999999999       0.96221364242343244     
   249.09999999999999        6.6006662839445618E-002
   250.09999999999999       0.46554972066320882     
   251.09999999999999        2.0408921914968441     
   252.09999999999999        4.6786903287230643     
   253.09999999999999        8.2719665727909657     
   254.09999999999999        12.719872440946050     
   255.09999999999999        17.927455277522199     
   256.10000000000002        23.805429113927964     
   257.10000000000002        30.269949858526193     
   258.10000000000002        37.242395009032784     
   259.10000000000002        44.649148054671848     
   260.10000000000002        52.421387710938959     
   261.10000000000002        60.494882107692604     
   262.10000000000002        68.809788029794532     
   263.10000000000002        77.310455290310259     
   264.10000000000002        85.945236297729025     
   265.10000000000002        94.666300861628031     
   266.10000000000002        103.42945626575423     
   267.10000000000002        112.19397262235398     
   268.10000000000002        120.92241350867312     
   269.10000000000002        129.58047187353137     
   270.10000000000002        138.13681119092783     
   271.10000000000002        146.56291182678663     
   272.10000000000002        154.83292257551321     
   273.10000000000002        162.92351731432163     
   274.10000000000002        170.81375671526374     
   275.10000000000002        178.48495494779849     
   276.10000000000002        185.92055129825960     
   277.10000000000002        193.10598662684606     
   278.10000000000002        200.02858457757969     
   279.10000000000002        206.67743745213338     
   280.10000000000002        213.04329665460358     
   281.10000000000002        219.11846761066639     
   282.10000000000002        224.89670906176966     
   283.10000000000002        230.37313663242659     
   284.10000000000002        235.54413056670981     
   285.10000000000002        240.40724752845773     
   286.10000000000002        244.96113635814956     
   287.10000000000002        249.20545767886676     
   288.10000000000002        253.14080724300260     
   289.10000000000002        256.76864291090578     
   290.10000000000002        260.09121515296948     
   291.10000000000002        263.11150096662897     
   292.10000000000002        265.83314110036360     
   293.10000000000002        268.26038047740116     
   294.10000000000002        270.39801171275991     
   295.10000000000002        272.25132161823882     
   296.10000000000002        273.82604059130841     
   297.10000000000002        275.12829478514254     
   298.10000000000002        276.16456095846945     
   299.10000000000002        276.94162390576275     
   300.10000000000002        277.46653636968324     
   301.10000000000002        277.74658133984695     
   302.10000000000002        277.78923664359331     
   303.10000000000002        277.60214173659983     
   304.10000000000002        277.19306660310991     
   305.10000000000002        276.56988267760045     
   306.10000000000002        275.74053570200670     
   307.10000000000002        274.71302043441682     
   308.10000000000002        273.49535712783376     
   309.10000000000002        272.09556969924768     
   310.10000000000002        270.52166551196296     
   311.10000000000002        268.78161669594215     
   312.10000000000002        266.88334293341620     
   313.10000000000002        264.83469563916248     
   314.10000000000002        262.64344346685220     
   315.10000000000002        260.31725907542449     
   316.10000000000002        257.86370709126322     
   317.10000000000002        255.29023320434897     
   318.10000000000002        252.60415433849730     
   319.10000000000002        249.81264983809706     
   320.10000000000002        246.92275361559163     
   321.10000000000002        243.94134720620323     
   322.10000000000002        240.87515367825836     
   323.10000000000002        237.73073234951787     
   324.10000000000002        234.51447426171524     
   325.10000000000002        231.23259836762054     
   326.10000000000002        227.89114838655323     
   327.10000000000002        224.49599028619409     
   328.10000000000002        221.05281035032345     
   329.10000000000002        217.56711379375128     
   330.10000000000002        214.04422388744126     
   331.10000000000002        210.48928155845329     
   332.10000000000002        206.90724543085923     
   333.10000000000002        203.30289227543093     
   334.10000000000002        199.68081783726385     
   335.10000000000002        196.04543801208106     
   336.10000000000002        192.40099034323177     
   337.10000000000002        188.75153581295027     
   338.10000000000002        185.10096090251150     
   339.10000000000002        181.45297989741437     
   340.10000000000002        177.81113741484222     
   341.10000000000002        174.17881113184873     
   342.10000000000002        170.55921469391529     
   343.10000000000002        166.95540078454144     
   344.10000000000002        163.37026433772959     
   345.10000000000002        159.80654587606841     
   346.10000000000002        156.26683495830932     
   347.10000000000002        152.75357372110625     
   348.10000000000002        149.26906050061598     
   349.10000000000002        145.81545352044802     
   350.10000000000002        142.39477463336189     
   351.10000000000002        139.00891310487108     
   352.10000000000002        135.65962942766905     
   353.10000000000002        132.34855915658895     
   354.10000000000002        129.07721675444469     
   355.10000000000002        125.84699943982110     
   356.10000000000002        122.65919102850627     
   357.10000000000002        119.51496576085404     
   358.10000000000002        116.41539210800302     
   359.10000000000002        113.36143655034130     
   360.10000000000002        110.35396732226914     
   361.10000000000002        107.39375811767263     
   362.10000000000002        104.48149175107669     
   363.10000000000002        101.61776376993419     
   364.10000000000002        98.803086013834161     
   365.10000000000002        96.037890116922597     
   366.10000000000002        93.322530950119969     
   367.10000000000002        90.657290000213806     
   368.10000000000002        88.042378683072030     
   369.10000000000002        85.477941588745082     
   370.10000000000002        82.964059656344503     
   371.10000000000002        80.500753277035002     
   372.10000000000002        78.087985323620586     
   373.10000000000002        75.725664105544581     
   374.10000000000002        73.413646248327467     
   375.10000000000002        71.151739496684158     
