# Recoil energy (kev)        Event rate (events/gev)
   1.0000000000000000       0.68971639554984698     
   2.0000000000000000        2.6890097645893172     
   3.0000000000000000        5.8958942830687757     
   4.0000000000000000        10.212142415670534     
   5.0000000000000000        15.543305748327786     
   6.0000000000000000        21.798720526634810     
   7.0000000000000000        28.891499367188107     
   8.0000000000000000        36.738510510173903     
   9.0000000000000000        45.260345888170228     
   10.000000000000000        54.381279197916044     
   11.000000000000000        64.029215078490111     
   12.000000000000000        74.135630420709717     
   13.000000000000000        84.635508758389207     
   14.000000000000000        95.467268622187021     
   15.000000000000000        106.57268667090293     
   16.000000000000000        117.89681635309276     
   17.000000000000000        129.38790279353168     
   18.000000000000000        140.99729454423036     
   19.000000000000000        152.67935278819027     
   20.000000000000000        164.39135853572949     
   21.000000000000000        176.09341830785561     
   22.000000000000000        187.74836875863372     
   23.000000000000000        199.32168064870180     
   24.000000000000000        210.78136254480913     
   25.000000000000000        222.09786458542453     
   26.000000000000000        233.24398261993048     
   27.000000000000000        244.19476299853886     
   28.000000000000000        254.92740826176430     
   29.000000000000000        265.42118395191386     
   30.000000000000000        275.65732674452931     
   31.000000000000000        285.61895407490573     
   32.000000000000000        295.29097541365468     
   33.000000000000000        304.66000532565994     
   34.000000000000000        313.71427842859140     
   35.000000000000000        322.44356635036672     
   36.000000000000000        330.83909676941988     
   37.000000000000000        338.89347460734314     
   38.000000000000000        346.60060543032324     
   39.000000000000000        353.95562110367985     
   40.000000000000000        360.95480773275727     
   41.000000000000000        367.59553591325550     
   42.000000000000000        373.87619330484614     
   43.000000000000000        379.79611953347188     
   44.000000000000000        385.35554342008430     
   45.000000000000000        390.55552252662250     
   46.000000000000000        395.39788500379098     
   47.000000000000000        399.88517371955965     
   48.000000000000000        404.02059264225284     
   49.000000000000000        407.80795544762998     
   50.000000000000000        411.25163631533422     
   51.000000000000000        414.35652287661060     
   52.000000000000000        417.12797127208728     
   53.000000000000000        419.57176327576445     
   54.000000000000000        421.69406543906382     
   55.000000000000000        423.50139020682889     
   56.000000000000000        425.00055895557426     
   57.000000000000000        426.19866690292099     
   58.000000000000000        427.10304983613423     
   59.000000000000000        427.72125260684487     
   60.000000000000000        428.06099933848918     
   61.000000000000000        428.13016529261301     
   62.000000000000000        427.93675034002860     
   63.000000000000000        427.48885398280760     
   64.000000000000000        426.79465187324263     
   65.000000000000000        425.86237377623326     
   66.000000000000000        424.70028292195042     
   67.000000000000000        423.31665669622168     
   68.000000000000000        421.71976861668276     
   69.000000000000000        419.91787154351789     
   70.000000000000000        417.91918207442228     
   71.000000000000000        415.73186607431160     
   72.000000000000000        413.36402529126980     
   73.000000000000000        410.82368501123824     
   74.000000000000000        408.11878270499318     
   75.000000000000000        405.25715762209080     
   76.000000000000000        402.24654128754207     
   77.000000000000000        399.09454885818337     
   78.000000000000000        395.80867129685782     
   79.000000000000000        392.39626832371874     
   80.000000000000000        388.86456210518475     
   81.000000000000000        385.22063164227154     
   82.000000000000000        381.47140782124063     
   83.000000000000000        377.62366909072472     
   84.000000000000000        373.68403773069031     
   85.000000000000000        369.65897667978965     
   86.000000000000000        365.55478688886035     
   87.000000000000000        361.37760516950027     
   88.000000000000000        357.13340250778720     
   89.000000000000000        352.82798281440279     
   90.000000000000000        348.46698208349250     
   91.000000000000000        344.05586793374363     
   92.000000000000000        339.59993950622948     
   93.000000000000000        335.10432769462579     
   94.000000000000000        330.57399568446203     
   95.000000000000000        326.01373977907133     
   96.000000000000000        321.42819049089911     
   97.000000000000000        316.82181387779866     
   98.000000000000000        312.19891310487640     
   99.000000000000000        307.56363021336392     
   100.00000000000000        302.91994807888938     
   101.00000000000000        298.27169254236873     
   102.00000000000000        293.62253469757900     
   103.00000000000000        288.97599332029137     
   104.00000000000000        284.33543742459887     
   105.00000000000000        279.70408893286663     
   106.00000000000000        275.08502544642096     
   107.00000000000000        270.48118310483255     
   108.00000000000000        265.89535952230045     
   109.00000000000000        261.33021679032299     
   110.00000000000000        256.78828453644002     
   111.00000000000000        252.27196302946626     
   112.00000000000000        247.78352632219560     
   113.00000000000000        243.32512542312182     
   114.00000000000000        238.89879148925630     
   115.00000000000000        234.50643903262912     
   116.00000000000000        230.14986913357009     
   117.00000000000000        225.83077265430180     
   118.00000000000000        221.55073344686420     
   119.00000000000000        217.31123154979323     
   120.00000000000000        213.11364636839164     
   121.00000000000000        208.95925983382907     
   122.00000000000000        204.84925953666584     
   123.00000000000000        200.78474183076528     
   124.00000000000000        196.76671490388335     
   125.00000000000000        192.79610181154840     
   126.00000000000000        188.87374347115528     
   127.00000000000000        185.00040161347428     
   128.00000000000000        181.17676168905692     
   129.00000000000000        177.40343572728028     
   130.00000000000000        173.68096514601012     
   131.00000000000000        170.00982351009745     
   132.00000000000000        166.39041923714919     
   133.00000000000000        162.82309824920097     
   134.00000000000000        159.30814656913799     
   135.00000000000000        155.84579286087228     
   136.00000000000000        152.43621091246484     
   137.00000000000000        149.07952206154440     
   138.00000000000000        145.77579756251967     
   139.00000000000000        142.52506089522413     
   140.00000000000000        139.32729001476829     
   141.00000000000000        136.18241954249169     
   142.00000000000000        133.09034289802574     
   143.00000000000000        130.05091437258037     
   144.00000000000000        127.06395114367352     
   145.00000000000000        124.12923523160127     
   146.00000000000000        121.24651539804623     
   147.00000000000000        118.41550898728670     
   148.00000000000000        115.63590371054575     
   149.00000000000000        112.90735937408547     
   150.00000000000000        110.22950955171142     
   151.00000000000000        107.60196320239524     
   152.00000000000000        105.02430623379892     
   153.00000000000000        102.49610301249540     
   154.00000000000000        100.01689782174502     
   155.00000000000000        97.586216267709631     
   156.00000000000000        95.203566635027016     
   157.00000000000000        92.868441192679143     
   158.00000000000000        90.580317451133794     
   159.00000000000000        88.338659371741286     
   160.00000000000000        86.142918529391892     
   161.00000000000000        83.992535229456152     
   162.00000000000000        81.886939580036298     
   163.00000000000000        79.825552520567840     
   164.00000000000000        77.807786807819539     
   165.00000000000000        75.833047960336870     
   166.00000000000000        73.900735162383441     
   167.00000000000000        72.010242128428189     
   168.00000000000000        70.160957929227479     
   169.00000000000000        68.352267780549070     
   170.00000000000000        66.583553795570651     
   171.00000000000000        64.854195701993220     
   172.00000000000000        63.163571524884169     
   173.00000000000000        61.511058236272689     
   174.00000000000000        59.896032372492442     
   175.00000000000000        58.317870620271940     
   176.00000000000000        56.775950372543022     
   177.00000000000000        55.269650254940174     
   178.00000000000000        53.798350623937402     
   179.00000000000000        52.361434037560457     
   180.00000000000000        50.958285699595926     
   181.00000000000000        49.588293878200609     
   182.00000000000000        48.250850299799424     
   183.00000000000000        46.945350519143396     
   184.00000000000000        45.671194266381768     
   185.00000000000000        44.427785771983345     
   186.00000000000000        43.214534070325783     
   187.00000000000000        42.030853282754023     
   188.00000000000000        40.876162880887520     
   189.00000000000000        39.749887930944055     
   190.00000000000000        38.651459319820241     
   191.00000000000000        37.580313963659755     
   192.00000000000000        36.535894999616751     
   193.00000000000000        35.517651961504420     
   194.00000000000000        34.525040939999869     
   195.00000000000000        33.557524728061068     
   196.00000000000000        32.614572952190393     
   197.00000000000000        31.695662190162057     
   198.00000000000000        30.800276075815180     
   199.00000000000000        29.927905391493102     
   200.00000000000000        29.078048148696197     
   201.00000000000000        28.250209657493937     
   202.00000000000000        27.443902585229829     
   203.00000000000000        26.658647005031508     
   204.00000000000000        25.893970434625459     
   205.00000000000000        25.149407865938276     
   206.00000000000000        24.424501785949225     
   207.00000000000000        23.718802189247484     
   208.00000000000000        23.031866582726199     
   209.00000000000000        22.363259982835888     
   210.00000000000000        21.712554905802197     
   211.00000000000000        21.079331351199460     
   212.00000000000000        20.463176779256997     
   213.00000000000000        19.863686082262625     
   214.00000000000000        19.280461550412621     
   215.00000000000000        18.713112832445638     
   216.00000000000000        18.161256891385335     
   217.00000000000000        17.624517955702601     
   218.00000000000000        17.102527466198197     
   219.00000000000000        16.594924018892769     
   220.00000000000000        16.101353304201023     
   221.00000000000000        15.621468042656160     
   222.00000000000000        15.154927917436170     
   223.00000000000000        14.701399503939449     
   224.00000000000000        14.260556196640220     
   225.00000000000000        13.832078133447830     
   226.00000000000000        13.415652117785291     
   227.00000000000000        13.010971538589001     
   228.00000000000000        12.617736288426606     
   229.00000000000000        12.235652679919093     
   230.00000000000000        11.864433360644339     
   231.00000000000000        11.503797226692594     
   232.00000000000000        11.153469335034833     
   233.00000000000000        10.813180814858201     
   234.00000000000000        10.482668778014579     
   235.00000000000000        10.161676228722138     
   236.00000000000000        9.8499519726508993     
   237.00000000000000        9.5472505255186029     
   238.00000000000000        9.2533320213157104     
   239.00000000000000        8.9679621202714621     
   240.00000000000000        8.6909119166685365     
   241.00000000000000        8.4219578466065848     
   242.00000000000000        8.1608815958093572     
   243.00000000000000        7.9074700075661237     
   244.00000000000000        7.6615149908915168     
   245.00000000000000        7.4228134289825727     
   246.00000000000000        7.1911670880492924     
   247.00000000000000        6.9663825265874841     
   248.00000000000000        6.7482710051604418     
   249.00000000000000        6.5366483967501576     
   250.00000000000000        6.3313350977365390     
   251.00000000000000        6.1321559395568581     
   252.00000000000000        5.9389401010962795     
   253.00000000000000        5.7515210218546908     
   254.00000000000000        5.5697363159332527     
   255.00000000000000        5.3934276868796136     
   256.00000000000000        5.2224408434283767     
   257.00000000000000        5.0566254161698829     
   258.00000000000000        4.8958348751778145     
   259.00000000000000        4.7399264486233630     
   260.00000000000000        4.5887610424008667     
   261.00000000000000        4.4422031607876624     
   262.00000000000000        4.3001208281583105     
   263.00000000000000        4.1623855117709851     
   264.00000000000000        4.0288720456421352     
   265.00000000000000        3.8994585555229713     
   266.00000000000000        3.7740263849897415     
   267.00000000000000        3.6524600226576194     
   268.00000000000000        3.5346470305266009     
   269.00000000000000        3.4204779734661273     
   270.00000000000000        3.3098463498431290     
   271.00000000000000        3.2026485232973894     
   272.00000000000000        3.0987836556661055     
   273.00000000000000        2.9981536410588032     
   274.00000000000000        2.9006630410820549     
   275.00000000000000        2.8062190212122156     
   276.00000000000000        2.7147312883139265     
   277.00000000000000        2.6261120293004425     
   278.00000000000000        2.5402758509310797     
   279.00000000000000        2.4571397207403427     
   280.00000000000000        2.3766229090922253     
   281.00000000000000        2.2986469323524203     
   282.00000000000000        2.2231354971706208     
   283.00000000000000        2.1500144458641044     
   284.00000000000000        2.0792117028934403     
   285.00000000000000        2.0106572224202774     
   286.00000000000000        1.9442829369371013     
   287.00000000000000        1.8800227069576247     
   288.00000000000000        1.8178122717567742     
   289.00000000000000        1.7575892011482801     
   290.00000000000000        1.6992928482877199     
   291.00000000000000        1.6428643034885182     
   292.00000000000000        1.5882463490379675     
   293.00000000000000        1.5353834150001993     
   294.00000000000000        1.4842215359926900     
   295.00000000000000        1.4347083089226842     
   296.00000000000000        1.3867928516697057     
   297.00000000000000        1.3404257627002452     
   298.00000000000000        1.2955590816004543     
   299.00000000000000        1.2521462505125986     
   300.00000000000000        1.2101420764609505     
   301.00000000000000        1.1695026945527229     
   302.00000000000000        1.1301855320395349     
   303.00000000000000        1.0921492732249041     
   304.00000000000000        1.0553538252032901     
   305.00000000000000        1.0197602844160878     
   306.00000000000000       0.98533090401006274     
   307.00000000000000       0.95202906198378612     
   308.00000000000000       0.91981923010756261     
   309.00000000000000       0.88866694360243315     
   310.00000000000000       0.85853877156404990     
   311.00000000000000       0.82940228811697858     
   312.00000000000000       0.80122604428543764     
   313.00000000000000       0.77397954056626728     
   314.00000000000000       0.74763320019029356     
   315.00000000000000       0.72215834305812465     
   316.00000000000000       0.69752716033676865     
   317.00000000000000       0.67371268970339715     
   318.00000000000000       0.65068879122282486     
   319.00000000000000       0.62843012384547348     
   320.00000000000000       0.60691212251252225     
   321.00000000000000       0.58611097585536220     
   322.00000000000000       0.56600360447647680     
   323.00000000000000       0.54656763979900047     
   324.00000000000000       0.52778140347258951     
   325.00000000000000       0.50962388732308073     
   326.00000000000000       0.49207473383393185     
   327.00000000000000       0.47511421714733842     
   328.00000000000000       0.45872322457327996     
   329.00000000000000       0.44288323859482531     
   330.00000000000000       0.42757631935824852     
   331.00000000000000       0.41278508763671767     
   332.00000000000000       0.39849270825642580     
   333.00000000000000       0.38468287397430073     
   334.00000000000000       0.37133978979653953     
   335.00000000000000       0.35844815772750821     
   336.00000000000000       0.34599316193857166     
   337.00000000000000       0.33396045434678329     
   338.00000000000000       0.32233614059338234     
   339.00000000000000       0.31110676641240237     
   340.00000000000000       0.30025930437968784     
   341.00000000000000       0.28978114103297276     
   342.00000000000000       0.27966006435375801     
   343.00000000000000       0.26988425160192164     
   344.00000000000000       0.26044225749419403     
   345.00000000000000       0.25132300271779856     
   346.00000000000000       0.24251576277073597     
   347.00000000000000       0.23401015712035156     
   348.00000000000000       0.22579613867204101     
   349.00000000000000       0.21786398354004760     
   350.00000000000000       0.21020428111257677     
   351.00000000000000       0.20280792440349271     
   352.00000000000000       0.19566610068316889     
   353.00000000000000       0.18877028238110910     
   354.00000000000000       0.18211221825317736     
   355.00000000000000       0.17568392480643080     
   356.00000000000000       0.16947767797469820     
   357.00000000000000       0.16348600503819163     
   358.00000000000000       0.15770167678060296     
   359.00000000000000       0.15211769987730905     
   360.00000000000000       0.14672730950839585     
   361.00000000000000       0.14152396219043076     
   362.00000000000000       0.13650132882101126     
   363.00000000000000       0.13165328793025430     
   364.00000000000000       0.12697391913356690     
   365.00000000000000       0.12245749678013641     
   366.00000000000000       0.11809848379173772     
   367.00000000000000       0.11389152568656444     
   368.00000000000000       0.10983144478294736     
   369.00000000000000       0.10591323457792408     
   370.00000000000000       0.10213205429576172     
   371.00000000000000        9.8483223601655082E-002
   372.00000000000000        9.4962217475936930E-002
   373.00000000000000        9.1564661244260076E-002
   374.00000000000000        8.8286325759328654E-002
   375.00000000000000        8.5123122729848108E-002
   376.00000000000000        8.2071100192508947E-002
