# Recoil energy (kev)        Event rate (events/gev)
   1.0000000000000000        1.0291290305687330E-005
   2.0000000000000000        8.0245678660879679E-005
   3.0000000000000000        2.6391873560000580E-004
   4.0000000000000000        6.0950340122858861E-004
   5.0000000000000000        1.1596119274399587E-003
   6.0000000000000000        1.9515583159652253E-003
   7.0000000000000000        3.0176398080561250E-003
   8.0000000000000000        4.3854161449339620E-003
   9.0000000000000000        6.0779854689359250E-003
   10.000000000000000        8.1142558743181568E-003
   11.000000000000000        1.0509211744661972E-002
   12.000000000000000        1.3274174131466391E-002
   13.000000000000000        1.6417054536453007E-002
   14.000000000000000        1.9942601558981470E-002
   15.000000000000000        2.3852639960362892E-002
   16.000000000000000        2.8146301779327088E-002
   17.000000000000000        3.2820249207970102E-002
   18.000000000000000        3.7868889005689237E-002
   19.000000000000000        4.3284578290366353E-002
   20.000000000000000        4.9057821601842820E-002
   21.000000000000000        5.5177459182955010E-002
   22.000000000000000        6.1630846468464569E-002
   23.000000000000000        6.8404024812508499E-002
   24.000000000000000        7.5481883521042820E-002
   25.000000000000000        8.2848313287510036E-002
   26.000000000000000        9.0486351157931535E-002
   27.000000000000000        9.8378317176093605E-002
   28.000000000000000       0.10650594288075488     
   29.000000000000000       0.11485049184509080     
   30.000000000000000       0.12339287246417062     
   31.000000000000000       0.13211374320933486     
   32.000000000000000       0.14099361057914692     
   33.000000000000000       0.15001291998530797     
   34.000000000000000       0.15915213981874068     
   35.000000000000000       0.16839183894614757     
   36.000000000000000       0.17771275789087559     
   37.000000000000000       0.18709587395403862     
   38.000000000000000       0.19652246053269409     
   39.000000000000000       0.20597414089156377     
   40.000000000000000       0.21543293664347221     
   41.000000000000000       0.22488131119143351     
   42.000000000000000       0.23430220838227034     
   43.000000000000000       0.24367908661789978     
   44.000000000000000       0.25299594866602848     
   45.000000000000000       0.26223736740707621     
   46.000000000000000       0.27138850774875667     
   47.000000000000000       0.28043514493395333     
   48.000000000000000       0.28936367946138647     
   49.000000000000000       0.29816114883218742     
   50.000000000000000       0.30681523632884056     
   51.000000000000000       0.31531427702617165     
   52.000000000000000       0.32364726122710624     
   53.000000000000000       0.33180383550891140     
   54.000000000000000       0.33977430155853755     
   55.000000000000000       0.34754961296858311     
   56.000000000000000       0.35512137015830192     
   57.000000000000000       0.36248181357701298     
   58.000000000000000       0.36962381534026478     
   59.000000000000000       0.37654086944218101     
   60.000000000000000       0.38322708068058203     
   61.000000000000000       0.38967715242476764     
   62.000000000000000       0.39588637334924720     
   63.000000000000000       0.40185060325026895     
   64.000000000000000       0.40756625805568697     
   65.000000000000000       0.41303029413258868     
   66.000000000000000       0.41824019199110957     
   67.000000000000000       0.42319393947709855     
   68.000000000000000       0.42789001454064696     
   69.000000000000000       0.43232736766208341     
   70.000000000000000       0.43650540401177268     
   71.000000000000000       0.44042396541500312     
   72.000000000000000       0.44408331218836322     
   73.000000000000000       0.44748410490932861     
   74.000000000000000       0.45062738617626119     
   75.000000000000000       0.45351456241174742     
   76.000000000000000       0.45614738575801567     
   77.000000000000000       0.45852793610927484     
   78.000000000000000       0.46065860332203112     
   79.000000000000000       0.46254206964082178     
   80.000000000000000       0.46418129237343425     
   81.000000000000000       0.46557948684639000     
   82.000000000000000       0.46674010966839480     
   83.000000000000000       0.46766684232655586     
   84.000000000000000       0.46836357513737165     
   85.000000000000000       0.46883439157189966     
   86.000000000000000       0.46908355297204635     
   87.000000000000000       0.46911548367259331     
   88.000000000000000       0.46893475654138039     
   89.000000000000000       0.46854607894805139     
   90.000000000000000       0.46795427916979382     
   91.000000000000000       0.46716429324075476     
   92.000000000000000       0.46618115225011897     
   93.000000000000000       0.46500997009225781     
   94.000000000000000       0.46365593167093549     
   95.000000000000000       0.46212428155818902     
   96.000000000000000       0.46042031310725307     
   97.000000000000000       0.45854935801777180     
   98.000000000000000       0.45651677635045135     
   99.000000000000000       0.45432794698735823     
   100.00000000000000       0.45198825853318175     
   101.00000000000000       0.44950310065195331     
   102.00000000000000       0.44687785583300266     
   103.00000000000000       0.44411789157926490     
   104.00000000000000       0.44122855301044484     
   105.00000000000000       0.43821515587304538     
   106.00000000000000       0.43508297994876616     
   107.00000000000000       0.43183726285239155     
   108.00000000000000       0.42848319420990749     
   109.00000000000000       0.42502591020730973     
   110.00000000000000       0.42147048850026181     
   111.00000000000000       0.41782194347459006     
   112.00000000000000       0.41408522184739921     
   113.00000000000000       0.41026519859846472     
   114.00000000000000       0.40636667322146780     
   115.00000000000000       0.40239436628454528     
   116.00000000000000       0.39835291628964503     
   117.00000000000000       0.39424687682009740     
   118.00000000000000       0.39008071396590727     
   119.00000000000000       0.38585880401627198     
   120.00000000000000       0.38158543140890705     
   121.00000000000000       0.37726478692586651     
   122.00000000000000       0.37290096612562806     
   123.00000000000000       0.36849796800136619     
   124.00000000000000       0.36405969385545073     
   125.00000000000000       0.35958994638037767     
   126.00000000000000       0.35509242893651088     
   127.00000000000000       0.35057074501717767     
   128.00000000000000       0.34602839789185863     
   129.00000000000000       0.34146879041841616     
   130.00000000000000       0.33689522501549485     
   131.00000000000000       0.33231090378644867     
   132.00000000000000       0.32771892878637721     
   133.00000000000000       0.32312230242404366     
   134.00000000000000       0.31852392799071361     
   135.00000000000000       0.31392661030815039     
   136.00000000000000       0.30933305648823894     
   137.00000000000000       0.30474587679696535     
   138.00000000000000       0.30016758561567225     
   139.00000000000000       0.29560060249278053     
   140.00000000000000       0.29104725327937520     
   141.00000000000000       0.28650977134229588     
   142.00000000000000       0.28199029884860161     
   143.00000000000000       0.27749088811549949     
   144.00000000000000       0.27301350302006872     
   145.00000000000000       0.26856002046330973     
   146.00000000000000       0.26413223188329882     
   147.00000000000000       0.25973184481241696     
   148.00000000000000       0.25536048447385279     
   149.00000000000000       0.25101969541278246     
   150.00000000000000       0.24671094315784106     
   151.00000000000000       0.24243561590867421     
   152.00000000000000       0.23819502624561334     
   153.00000000000000       0.23399041285764161     
   154.00000000000000       0.22982294228505409     
   155.00000000000000       0.22569371067337612     
   156.00000000000000       0.22160374553530218     
   157.00000000000000       0.21755400751755224     
   158.00000000000000       0.21354539216976307     
   159.00000000000000       0.20957873171265487     
   160.00000000000000       0.20565479680288631     
   161.00000000000000       0.20177429829217350     
   162.00000000000000       0.19793788897837974     
   163.00000000000000       0.19414616534644086     
   164.00000000000000       0.19039966929712668     
   165.00000000000000       0.18669888986176522     
   166.00000000000000       0.18304426490120043     
   167.00000000000000       0.17943618278736345     
   168.00000000000000       0.17587498406596708     
   169.00000000000000       0.17236096309895108     
   170.00000000000000       0.16889436968539837     
   171.00000000000000       0.16547541065977864     
   172.00000000000000       0.16210425146644156     
   173.00000000000000       0.15878101770941955     
   174.00000000000000       0.15550579667664777     
   175.00000000000000       0.15227863883784901     
   176.00000000000000       0.14909955931536484     
   177.00000000000000       0.14596853932733980     
   178.00000000000000       0.14288552760271225     
   179.00000000000000       0.13985044176755404     
   180.00000000000000       0.13686316970236970     
   181.00000000000000       0.13392357087002532     
   182.00000000000000       0.13103147761404896     
   183.00000000000000       0.12818669642709724     
   184.00000000000000       0.12538900918944557     
   185.00000000000000       0.12263817437740539     
   186.00000000000000       0.11993392824162753     
   187.00000000000000       0.11727598595529867     
   188.00000000000000       0.11466404273227376     
   189.00000000000000       0.11209777491524632     
   190.00000000000000       0.10957684103407309     
   191.00000000000000       0.10710088283442988     
   192.00000000000000       0.10466952627699629     
   193.00000000000000       0.10228238250740189     
   194.00000000000000        9.9939048797192759E-002
   195.00000000000000        9.7639109456113746E-002
   196.00000000000000        9.5382136716016738E-002
   197.00000000000000        9.3167691586732784E-002
   198.00000000000000        9.0995324684270365E-002
   199.00000000000000        8.8864577031713354E-002
   200.00000000000000        8.6774980833222493E-002
   201.00000000000000        8.4726060221543359E-002
   202.00000000000000        8.2717331979457950E-002
   203.00000000000000        8.0748306235611356E-002
   204.00000000000000        7.8818487135170132E-002
   205.00000000000000        7.6927373485772638E-002
   206.00000000000000        7.5074459379239275E-002
   207.00000000000000        7.3259234789527158E-002
   208.00000000000000        7.1481186147405756E-002
   209.00000000000000        6.9739796892348729E-002
   210.00000000000000        6.8034548002134224E-002
   211.00000000000000        6.6364918500651404E-002
   212.00000000000000        6.4730385944411412E-002
   213.00000000000000        6.3130426888266075E-002
   214.00000000000000        6.1564517330833936E-002
   215.00000000000000        6.0032133140135654E-002
   216.00000000000000        5.8532750459940421E-002
   217.00000000000000        5.7065846097319857E-002
   218.00000000000000        5.5630897891908629E-002
   219.00000000000000        5.4227385067363416E-002
   220.00000000000000        5.2854788565511054E-002
   221.00000000000000        5.1512591363675107E-002
   222.00000000000000        5.0200278775655263E-002
   223.00000000000000        4.8917338736847081E-002
   224.00000000000000        4.7663262073965484E-002
   225.00000000000000        4.6437542759840099E-002
   226.00000000000000        4.5239678153747152E-002
   227.00000000000000        4.4069169227724844E-002
   228.00000000000000        4.2925520779323836E-002
   229.00000000000000        4.1808241631233402E-002
   230.00000000000000        4.0716844818213471E-002
   231.00000000000000        3.9650847761761879E-002
   232.00000000000000        3.8609772432933238E-002
   233.00000000000000        3.7593145503721150E-002
   234.00000000000000        3.6600498487406402E-002
   235.00000000000000        3.5631367868268302E-002
   236.00000000000000        3.4685295221043126E-002
   237.00000000000000        3.3761827320511237E-002
   238.00000000000000        3.2860516241584474E-002
   239.00000000000000        3.1980919450253567E-002
   240.00000000000000        3.1122599885754106E-002
   241.00000000000000        3.0285126034295607E-002
   242.00000000000000        2.9468071994690353E-002
   243.00000000000000        2.8671017536215457E-002
   244.00000000000000        2.7893548149028665E-002
   245.00000000000000        2.7135255087448216E-002
   246.00000000000000        2.6395735406408560E-002
   247.00000000000000        2.5674591991383659E-002
   248.00000000000000        2.4971433582071142E-002
   249.00000000000000        2.4285874790115305E-002
   250.00000000000000        2.3617536111146760E-002
   251.00000000000000        2.2966043931400271E-002
   252.00000000000000        2.2331030529172437E-002
   253.00000000000000        2.1712134071366636E-002
   254.00000000000000        2.1108998605370997E-002
   255.00000000000000        2.0521274046502749E-002
   256.00000000000000        1.9948616161248885E-002
   257.00000000000000        1.9390686546523012E-002
   258.00000000000000        1.8847152605153159E-002
   259.00000000000000        1.8317687517807543E-002
   260.00000000000000        1.7801970211558219E-002
   261.00000000000000        1.7299685325276815E-002
   262.00000000000000        1.6810523172048918E-002
   263.00000000000000        1.6334179698787518E-002
   264.00000000000000        1.5870356443220452E-002
   265.00000000000000        1.5418760488419380E-002
   266.00000000000000        1.4979104415032951E-002
   267.00000000000000        1.4551106251379330E-002
   268.00000000000000        1.4134489421549198E-002
   269.00000000000000        1.3728982691664499E-002
   270.00000000000000        1.3334320114430597E-002
   271.00000000000000        1.2950240972117144E-002
   272.00000000000000        1.2576489718095102E-002
   273.00000000000000        1.2212815917054701E-002
   274.00000000000000        1.1858974184022082E-002
   275.00000000000000        1.1514724122287594E-002
   276.00000000000000        1.1179830260356285E-002
   277.00000000000000        1.0854061988023852E-002
   278.00000000000000        1.0537193491678070E-002
   279.00000000000000        1.0229003688921523E-002
   280.00000000000000        9.9292761626069287E-003
   281.00000000000000        9.6377990943718045E-003
   282.00000000000000        9.3543651977567432E-003
   283.00000000000000        9.0787716509856242E-003
   284.00000000000000        8.8108200294843321E-003
   285.00000000000000        8.5503162382090814E-003
   286.00000000000000        8.2970704438544013E-003
   287.00000000000000        8.0508970070040809E-003
   288.00000000000000        7.8116144142885138E-003
   289.00000000000000        7.5790452106062446E-003
   290.00000000000000        7.3530159314656547E-003
   291.00000000000000        7.1333570354995390E-003
   292.00000000000000        6.9199028372020181E-003
   293.00000000000000        6.7124914399351292E-003
   294.00000000000000        6.5109646692493323E-003
   295.00000000000000        6.3151680065595996E-003
   296.00000000000000        6.1249505232163605E-003
   297.00000000000000        5.9401648150084595E-003
   298.00000000000000        5.7606669371324032E-003
   299.00000000000000        5.5863163396602886E-003
   300.00000000000000        5.4169758035367043E-003
   301.00000000000000        5.2525113771328307E-003
   302.00000000000000        5.0927923133837023E-003
   303.00000000000000        4.9376910075330429E-003
   304.00000000000000        4.7870829355082575E-003
   305.00000000000000        4.6408465929460678E-003
   306.00000000000000        4.4988634348878710E-003
   307.00000000000000        4.3610178161623851E-003
   308.00000000000000        4.2271969324714021E-003
   309.00000000000000        4.0972907621927620E-003
   310.00000000000000        3.9711920089142367E-003
   311.00000000000000        3.8487960447091316E-003
   312.00000000000000        3.7300008541646689E-003
   313.00000000000000        3.6147069791716943E-003
   314.00000000000000        3.5028174644842133E-003
   315.00000000000000        3.3942378040550392E-003
   316.00000000000000        3.2888758881538249E-003
   317.00000000000000        3.1866419512717810E-003
   318.00000000000000        3.0874485208170106E-003
   319.00000000000000        2.9912103666035919E-003
   320.00000000000000        2.8978444511358098E-003
   321.00000000000000        2.8072698806891798E-003
   322.00000000000000        2.7194078571884878E-003
   323.00000000000000        2.6341816308821770E-003
   324.00000000000000        2.5515164538126114E-003
   325.00000000000000        2.4713395340796888E-003
   326.00000000000000        2.3935799908960994E-003
   327.00000000000000        2.3181688104307878E-003
   328.00000000000000        2.2450388024373557E-003
   329.00000000000000        2.1741245576632003E-003
   330.00000000000000        2.1053624060348259E-003
   331.00000000000000        2.0386903756144802E-003
   332.00000000000000        1.9740481523224263E-003
   333.00000000000000        1.9113770404191853E-003
   334.00000000000000        1.8506199237413238E-003
   335.00000000000000        1.7917212276845238E-003
   336.00000000000000        1.7346268819266070E-003
   337.00000000000000        1.6792842838836966E-003
   338.00000000000000        1.6256422628916616E-003
   339.00000000000000        1.5736510451055366E-003
   340.00000000000000        1.5232622191084400E-003
   341.00000000000000        1.4744287022221822E-003
   342.00000000000000        1.4271047075110346E-003
   343.00000000000000        1.3812457114700518E-003
   344.00000000000000        1.3368084223892842E-003
   345.00000000000000        1.2937507493850043E-003
   346.00000000000000        1.2520317720889531E-003
   347.00000000000000        1.2116117109864386E-003
   348.00000000000000        1.1724518983942649E-003
   349.00000000000000        1.1345147500689274E-003
   350.00000000000000        1.0977637374360808E-003
   351.00000000000000        1.0621633604314771E-003
   352.00000000000000        1.0276791209443065E-003
   353.00000000000000        9.9427749685319575E-004
   354.00000000000000        9.6192591664543607E-004
   355.00000000000000        9.3059273460996503E-004
   356.00000000000000        9.0024720659456509E-004
   357.00000000000000        8.7085946631774297E-004
   358.00000000000000        8.4240050222577473E-004
   359.00000000000000        8.1484213488557198E-004
   360.00000000000000        7.8815699490373278E-004
   361.00000000000000        7.6231850136254436E-004
   362.00000000000000        7.3730084076353679E-004
   363.00000000000000        7.1307894646920338E-004
   364.00000000000000        6.8962847863376182E-004
   365.00000000000000        6.6692580461369117E-004
   366.00000000000000        6.4494797984898189E-004
   367.00000000000000        6.2367272920599564E-004
   368.00000000000000        6.0307842877304729E-004
   369.00000000000000        5.8314408809977906E-004
   370.00000000000000        5.6384933287154007E-004
   371.00000000000000        5.4517438801008310E-004
   372.00000000000000        5.2710006119193560E-004
   373.00000000000000        5.0960772677595206E-004
   374.00000000000000        4.9267931013165147E-004
   375.00000000000000        4.7629727235993700E-004
   376.00000000000000        4.6044459539810106E-004
