# Recoil energy (kev)        Event rate (events/gev)
   1.0000000000000000        26118283019.675926     
   2.0000000000000000        25430048034.813038     
   3.0000000000000000        24754965984.316769     
   4.0000000000000000        24093064441.624165     
   5.0000000000000000        23444349821.701691     
   6.0000000000000000        22808808889.161739     
   7.0000000000000000        22186410187.712425     
   8.0000000000000000        21577105394.389065     
   9.0000000000000000        20980830601.887199     
   10.000000000000000        20397507532.192947     
   11.000000000000000        19827044684.584553     
   12.000000000000000        19269338420.962330     
   13.000000000000000        18724273991.350384     
   14.000000000000000        18191726502.302498     
   15.000000000000000        17671561830.838917     
   16.000000000000000        17163637486.436220     
   17.000000000000000        16667803423.493097     
   18.000000000000000        16183902806.597792     
   19.000000000000000        15711772730.829357     
   20.000000000000000        15251244899.234245     
   21.000000000000000        14802146259.532759     
   22.000000000000000        14364299602.024570     
   23.000000000000000        13937524120.582087     
   24.000000000000000        13521635938.540815     
   25.000000000000000        13116448601.220333     
   26.000000000000000        12721773536.736238     
   27.000000000000000        12337420486.692760     
   28.000000000000000        11963197908.277691     
   29.000000000000000        11598913349.215664     
   30.000000000000000        11244373796.972820     
   31.000000000000000        10899386003.544827     
   32.000000000000000        10563756787.101803     
   33.000000000000000        10237293311.707642     
   34.000000000000000        9919803346.2763596     
   35.000000000000000        9611095503.8767509     
   36.000000000000000        9310979462.4460373     
   37.000000000000000        9019266167.9252071     
   38.000000000000000        8735768020.7823906     
   39.000000000000000        8460299046.8464413     
   40.000000000000000        8192675053.3297625     
   41.000000000000000        7932713770.8789606     
   42.000000000000000        7680234982.4521389     
   43.000000000000000        7435060639.7842970     
   44.000000000000000        7197014968.1658278     
   45.000000000000000        6965924560.2245808     
   46.000000000000000        6741618459.3686953     
   47.000000000000000        6523928233.5154486     
   48.000000000000000        6312688039.7008228     
   49.000000000000000        6107734680.1354475     
   50.000000000000000        5908907650.2442150     
   51.000000000000000        5716049179.2004623     
   52.000000000000000        5529004263.4395533     
   53.000000000000000        5347620693.6124325     
   54.000000000000000        5171749075.4161587     
   55.000000000000000        5001242844.7159033     
   56.000000000000000        4835958277.3514910     
   57.000000000000000        4675754494.0010948     
   58.000000000000000        4520493460.4550056     
   59.000000000000000        4370039983.6337109     
   60.000000000000000        4224261703.6666718     
   61.000000000000000        4083029082.3311310     
   62.000000000000000        3946215388.1339192     
   63.000000000000000        3813696678.3038025     
   64.000000000000000        3685351777.9470053     
   65.000000000000000        3561062256.6045389     
   66.000000000000000        3440712402.4362741     
   67.000000000000000        3324189194.2442331     
   68.000000000000000        3211382271.5349436     
   69.000000000000000        3102183902.8093777     
   70.000000000000000        2996488952.2577610     
   71.000000000000000        2894194845.0260687     
   72.000000000000000        2795201531.2109261     
   73.000000000000000        2699411448.7301874     
   74.000000000000000        2606729485.2072945     
   75.000000000000000        2517062938.9990406     
   76.000000000000000        2430321479.4880028     
   77.000000000000000        2346417106.7532978     
   78.000000000000000        2265264110.7258410     
   79.000000000000000        2186779029.9273334     
   80.000000000000000        2110880609.8855178     
   81.000000000000000        2037489761.3120012     
   82.000000000000000        1966529518.1229324     
   83.000000000000000        1897924995.3771832     
   84.000000000000000        1831603347.2013583     
   85.000000000000000        1767493724.7657883     
   86.000000000000000        1705527234.3710504     
   87.000000000000000        1645636895.6998210     
   88.000000000000000        1587757600.2847211     
   89.000000000000000        1531826070.2387464     
   90.000000000000000        1477780817.2909579     
   91.000000000000000        1425562102.1666551     
   92.000000000000000        1375111894.3477223     
   93.000000000000000        1326373832.2456827     
   94.000000000000000        1279293183.8169975     
   95.000000000000000        1233816807.6472731     
   96.000000000000000        1189893114.5283244     
   97.000000000000000        1147472029.5496657     
   98.000000000000000        1106504954.7234552     
   99.000000000000000        1066944732.1598368     
   100.00000000000000        1028745607.8075005     
   101.00000000000000        991863195.77231145     
   102.00000000000000        956254443.22505200     
   103.00000000000000        921877595.90763676     
   104.00000000000000        888692164.24548578     
   105.00000000000000        856658890.07237577     
   106.00000000000000        825739713.97254503     
   107.00000000000000        795897743.24368894     
   108.00000000000000        767097220.48313856     
   109.00000000000000        739303492.79851532     
   110.00000000000000        712482981.64301682     
   111.00000000000000        686603153.27458799     
   112.00000000000000        661632489.83733320     
   113.00000000000000        637540461.06267309     
   114.00000000000000        614297496.58702374     
   115.00000000000000        591874958.88207221     
   116.00000000000000        570245116.79307318     
   117.00000000000000        549381119.68001580     
   118.00000000000000        529256972.15597934     
   119.00000000000000        509847509.41650140     
   120.00000000000000        491128373.15334558     
   121.00000000000000        473075988.04567379     
   122.00000000000000        455667538.82123375     
   123.00000000000000        438880947.87990749     
   124.00000000000000        422694853.47162622     
   125.00000000000000        407088588.42044461     
   126.00000000000000        392042159.38633817     
   127.00000000000000        377536226.65608859     
   128.00000000000000        363552084.45446414     
   129.00000000000000        350071641.76677853     
   130.00000000000000        337077403.66376805     
   131.00000000000000        324552453.11966205     
   132.00000000000000        312480433.31424713     
   133.00000000000000        300845530.40965456     
   134.00000000000000        289632456.79259652     
   135.00000000000000        278826434.77273560     
   136.00000000000000        268413180.72788444     
   137.00000000000000        258378889.68674037     
   138.00000000000000        248710220.33989137     
   139.00000000000000        239394280.46985579     
   140.00000000000000        230418612.79098976     
   141.00000000000000        221771181.19012973     
   142.00000000000000        213440357.35893437     
   143.00000000000000        205414907.80894497     
   144.00000000000000        197683981.26048604     
   145.00000000000000        190237096.39661247     
   146.00000000000000        183064129.97341269     
   147.00000000000000        176155305.27808484     
   148.00000000000000        169501180.92630857     
   149.00000000000000        163092639.99055415     
   150.00000000000000        156920879.45109749     
   151.00000000000000        150977399.96160877     
   152.00000000000000        145253995.92135045     
   153.00000000000000        139742745.84610587     
   154.00000000000000        134436003.03012067     
   155.00000000000000        129326386.49146178     
   156.00000000000000        124406772.19334254     
   157.00000000000000        119670284.53408013     
   158.00000000000000        115110288.09851667     
   159.00000000000000        110720379.66385408     
   160.00000000000000        106494380.45299369     
   161.00000000000000        102426328.62862164     
   162.00000000000000        98510472.021408901     
   163.00000000000000        94741261.085837394     
   164.00000000000000        91113342.077307180     
   165.00000000000000        87621550.444305882     
   166.00000000000000        84260904.429573417     
   167.00000000000000        81026598.874316052     
   168.00000000000000        77913999.219671249     
   169.00000000000000        74918635.699752823     
   170.00000000000000        72036197.720733762     
   171.00000000000000        69262528.420569882     
   172.00000000000000        66593619.404076353     
   173.00000000000000        64025605.648218900     
   174.00000000000000        61554760.572586767     
   175.00000000000000        59177491.270158641     
   176.00000000000000        56890333.893578090     
   177.00000000000000        54689949.192288227     
   178.00000000000000        52573118.195988514     
   179.00000000000000        50536738.039993316     
   180.00000000000000        48577817.928190090     
   181.00000000000000        46693475.229403950     
   182.00000000000000        44880931.703089952     
   183.00000000000000        43137509.850379385     
   184.00000000000000        41460629.386617698     
   185.00000000000000        39847803.831631705     
   186.00000000000000        38296637.214068763     
   187.00000000000000        36804820.886252582     
   188.00000000000000        35370130.446093075     
   189.00000000000000        33990422.762692861     
   190.00000000000000        32663633.102376830     
   191.00000000000000        31387772.351972178     
   192.00000000000000        30160924.336252332     
   193.00000000000000        28981243.226546057     
   194.00000000000000        27846951.037599791     
   195.00000000000000        26756335.209867187     
   196.00000000000000        25707746.274478003     
   197.00000000000000        24699595.598222572     
   198.00000000000000        23730353.205963437     
   199.00000000000000        22798545.677963320     
   200.00000000000000        21902754.119693704     
   201.00000000000000        21041612.201758355     
   202.00000000000000        20213804.267640051     
   203.00000000000000        19418063.507044919     
   204.00000000000000        18653170.192687735     
   205.00000000000000        17917949.978426374     
   206.00000000000000        17211272.256716173     
   207.00000000000000        16532048.573420273     
   208.00000000000000        15879231.098067760     
   209.00000000000000        15251811.147713892     
   210.00000000000000        14648817.762612615     
   211.00000000000000        14069316.331966598     
   212.00000000000000        13512407.268074669     
   213.00000000000000        12977224.727249507     
   214.00000000000000        12462935.375928756     
   215.00000000000000        11968737.200452672     
   216.00000000000000        11493858.359030362     
   217.00000000000000        11037556.074462434     
   218.00000000000000        10599115.566234650     
   219.00000000000000        10177849.020640433     
   220.00000000000000        9773094.5976336729     
   221.00000000000000        9384215.4731556606     
   222.00000000000000        9010598.9157178048     
   223.00000000000000        8651655.3960656226     
   224.00000000000000        8306817.7287832862     
   225.00000000000000        7975540.2447371818     
   226.00000000000000        7657297.9932937874     
   227.00000000000000        7351585.9732793281     
   228.00000000000000        7057918.3916850984     
   229.00000000000000        6775827.9491539085     
   230.00000000000000        6504865.1513148034     
   231.00000000000000        6244597.6450648736     
   232.00000000000000        5994609.5789259812     
   233.00000000000000        5754500.9866337813     
   234.00000000000000        5523887.1931443512     
   235.00000000000000        5302398.2422710238     
   236.00000000000000        5089678.3451900883     
   237.00000000000000        4885385.3490799805     
   238.00000000000000        4689190.2251833025     
   239.00000000000000        4500776.5756043550     
   240.00000000000000        4319840.1581792580     
   241.00000000000000        4146088.4287770847     
   242.00000000000000        3979240.1004125746     
   243.00000000000000        3819024.7185726473     
   244.00000000000000        3665182.2521784846     
   245.00000000000000        3517462.6996248765     
   246.00000000000000        3375625.7093584794     
   247.00000000000000        3239440.2144737826     
   248.00000000000000        3108684.0808246834     
   249.00000000000000        2983143.7681659125     
   250.00000000000000        2862614.0038563609     
   251.00000000000000        2746897.4686712925     
   252.00000000000000        2635804.4942874578     
   253.00000000000000        2529152.7720190343     
   254.00000000000000        2426767.0723979669     
   255.00000000000000        2328478.9752058373     
   256.00000000000000        2234126.6095784297     
   257.00000000000000        2143554.4038171871     
   258.00000000000000        2056612.8445547915     
   259.00000000000000        1973158.2449342932     
   260.00000000000000        1893052.5214733232     
   261.00000000000000        1816162.9792963513     
   262.00000000000000        1742362.1054293585     
   263.00000000000000        1671527.3698617588     
   264.00000000000000        1603541.0340912347     
   265.00000000000000        1538289.9668769178     
   266.00000000000000        1475665.4669362986     
   267.00000000000000        1415563.0923304993     
   268.00000000000000        1357882.4962917608     
   269.00000000000000        1302527.2692558162     
   270.00000000000000        1249404.7868700526     
   271.00000000000000        1198426.0637568822     
   272.00000000000000        1149505.6128193785     
   273.00000000000000        1102561.3098841149     
   274.00000000000000        1057514.2634833199     
   275.00000000000000        1014288.6895855927     
   276.00000000000000        972811.79109150590     
   277.00000000000000        933013.64191682171     
   278.00000000000000        894827.07549252559     
   279.00000000000000        858187.57751712913     
   280.00000000000000        823033.18280259334     
   281.00000000000000        789304.37606094941     
   282.00000000000000        756943.99648438743     
   283.00000000000000        725897.14597676031     
   284.00000000000000        696111.10089976864     
   285.00000000000000        667535.22720199183     
   286.00000000000000        640120.89880385250     
   287.00000000000000        613821.41911606491     
   288.00000000000000        588591.94557381724     
   289.00000000000000        564389.41707307787     
   290.00000000000000        541172.48419968109     
   291.00000000000000        518901.44214586483     
   292.00000000000000        497538.16621273960     
   293.00000000000000        477046.04980099603     
   294.00000000000000        457389.94479570864     
   295.00000000000000        438536.10425457836     
   296.00000000000000        420452.12731231208     
   297.00000000000000        403106.90621708427     
   298.00000000000000        386470.57541811810     
   299.00000000000000        370514.46262643050     
   300.00000000000000        355211.04177368496     
   301.00000000000000        340533.88779690972     
   302.00000000000000        326457.63317947270     
   303.00000000000000        312957.92618135229     
   304.00000000000000        300011.39069422311     
   305.00000000000000        287595.58765926474     
   306.00000000000000        275688.97798794688     
   307.00000000000000        264270.88692827703     
   308.00000000000000        253321.46982113767     
   309.00000000000000        242821.67919341644     
   310.00000000000000        232753.23313667363     
   311.00000000000000        223098.58492194201     
   312.00000000000000        213840.89380318983     
   313.00000000000000        204963.99696370109     
   314.00000000000000        196452.38256141450     
   315.00000000000000        188291.16383084696     
   316.00000000000000        180466.05420090281     
   317.00000000000000        172963.34338934845     
   318.00000000000000        165769.87443624009     
   319.00000000000000        158873.02164004769     
   320.00000000000000        152260.66936152050     
   321.00000000000000        145921.19166174380     
   322.00000000000000        139843.43274206904     
   323.00000000000000        134016.68815481526     
   324.00000000000000        128430.68675487932     
   325.00000000000000        123075.57336345088     
   326.00000000000000        117941.89211620191     
   327.00000000000000        113020.57046931825     
   328.00000000000000        108302.90383779154     
   329.00000000000000        103780.54084134784     
   330.00000000000000        99445.469134338491     
   331.00000000000000        95290.001796832454     
   332.00000000000000        91306.764265000384     
   333.00000000000000        87488.681779744365     
   334.00000000000000        83828.967333313398     
   335.00000000000000        80321.110094449323     
   336.00000000000000        76958.864293318984     
   337.00000000000000        73736.238548248832     
   338.00000000000000        70647.485616934791     
   339.00000000000000        67687.092555504700     
   340.00000000000000        64849.771269407800     
   341.00000000000000        62130.449440767487     
   342.00000000000000        59524.261817399245     
   343.00000000000000        57026.541849274668     
   344.00000000000000        54632.813658765423     
   345.00000000000000        52338.784331528776     
   346.00000000000000        50140.336515403724     
   347.00000000000000        48033.521315175261     
   348.00000000000000        46014.551471543564     
   349.00000000000000        44079.794813071872     
   350.00000000000000        42225.767970346038     
   351.00000000000000        40449.130341967895     
   352.00000000000000        38746.678302441258     
   353.00000000000000        37115.339642368985     
   354.00000000000000        35552.168231765856     
   355.00000000000000        34054.338897652015     
   356.00000000000000        32619.142507431210     
   357.00000000000000        31243.981249891229     
   358.00000000000000        29926.364105982659     
   359.00000000000000        28663.902501844746     
   360.00000000000000        27454.306136829284     
   361.00000000000000        26295.378979571342     
   362.00000000000000        25185.015425419468     
   363.00000000000000        24121.196608800579     
   364.00000000000000        23101.986864351722     
   365.00000000000000        22125.530330888567     
   366.00000000000000        21190.047692515403     
   367.00000000000000        20293.833051404399     
   368.00000000000000        19435.250926989185     
   369.00000000000000        18612.733376522501     
   370.00000000000000        17824.777232147284     
   371.00000000000000        17069.941449822938     
   372.00000000000000        16346.844565630448     
   373.00000000000000        15654.162255158082     
   374.00000000000000        14990.624991839864     
   375.00000000000000        14355.015800278425     
   376.00000000000000        13746.168100746761     
