# Recoil energy (kev)        Event rate (events/gev)
   1.0000000000000000        2889.0249191310095     
   2.0000000000000000        5631.7468076802406     
   3.0000000000000000        8232.0722035171239     
   4.0000000000000000        10693.936706066990     
   5.0000000000000000        13021.293367049107     
   6.0000000000000000        15218.102013368070     
   7.0000000000000000        17288.319447863727     
   8.0000000000000000        19235.890476228731     
   9.0000000000000000        21064.739710905385     
   10.000000000000000        22778.764105172795     
   11.000000000000000        24381.826172940371     
   12.000000000000000        25877.747851971784     
   13.000000000000000        27270.304970381643     
   14.000000000000000        28563.222278276990     
   15.000000000000000        29760.169008357560     
   16.000000000000000        30864.754931152078     
   17.000000000000000        31880.526872345723     
   18.000000000000000        32810.965661360147     
   19.000000000000000        33659.483481973875     
   20.000000000000000        34429.421597329456     
   21.000000000000000        35124.048423160784     
   22.000000000000000        35746.557924492838     
   23.000000000000000        36300.068312425996     
   24.000000000000000        36787.621018906822     
   25.000000000000000        37212.179928624173     
   26.000000000000000        37576.630848346038     
   27.000000000000000        37883.781195133110     
   28.000000000000000        38136.359885934631     
   29.000000000000000        38337.017412089008     
   30.000000000000000        38488.326083220651     
   31.000000000000000        38592.780425946134     
   32.000000000000000        38652.797723677540     
   33.000000000000000        38670.718684647938     
   34.000000000000000        38648.808226070294     
   35.000000000000000        38589.256363098386     
   36.000000000000000        38494.179191968869     
   37.000000000000000        38365.619957381889     
   38.000000000000000        38205.550194821459     
   39.000000000000000        38015.870939124514     
   40.000000000000000        37798.413991186317     
   41.000000000000000        37554.943235235420     
   42.000000000000000        37287.155999630580     
   43.000000000000000        36996.684454621020     
   44.000000000000000        36685.097040974979     
   45.000000000000000        36353.899923819357     
   46.000000000000000        36004.538466447688     
   47.000000000000000        35638.398719243793     
   48.000000000000000        35256.808919236588     
   49.000000000000000        34861.040996151474     
   50.000000000000000        34452.312081148317     
   51.000000000000000        34031.786014748177     
   52.000000000000000        33600.574850738660     
   53.000000000000000        33159.740353123154     
   54.000000000000000        32710.295483435948     
   55.000000000000000        32253.205875985528     
   56.000000000000000        31789.391298817318     
   57.000000000000000        31319.727098397365     
   58.000000000000000        30845.045626219919     
   59.000000000000000        30366.137645727114     
   60.000000000000000        29883.753718104388     
   61.000000000000000        29398.605565678463     
   62.000000000000000        28911.367411797193     
   63.000000000000000        28422.677296212933     
   64.000000000000000        27933.138365123545     
   65.000000000000000        27443.320135149308     
   66.000000000000000        26953.759730637452     
   67.000000000000000        26464.963093795137     
   68.000000000000000        25977.406167247391     
   69.000000000000000        25491.536048711165     
   70.000000000000000        25007.772117559467     
   71.000000000000000        24526.507133128547     
   72.000000000000000        24048.108304693094     
   73.000000000000000        23572.918333100821     
   74.000000000000000        23101.256424117957     
   75.000000000000000        22633.419273594900     
   76.000000000000000        22169.682024609057     
   77.000000000000000        21710.299196791828     
   78.000000000000000        21255.505588086391     
   79.000000000000000        20805.517149221982     
   80.000000000000000        20360.531831225209     
   81.000000000000000        19920.730406319304     
   82.000000000000000        19486.277262589876     
   83.000000000000000        19057.321172821234     
   84.000000000000000        18633.996037927838     
   85.000000000000000        18216.421605425385     
   86.000000000000000        17804.704163402446     
   87.000000000000000        17398.937210467837     
   88.000000000000000        16999.202102160434     
   89.000000000000000        16605.568674319598     
   90.000000000000000        16218.095843920773     
   91.000000000000000        15836.832187889000     
   92.000000000000000        15461.816500407078     
   93.000000000000000        15093.078329238288     
   94.000000000000000        14730.638491586786     
   95.000000000000000        14374.509570018268     
   96.000000000000000        14024.696388963770     
   97.000000000000000        13681.196472328325     
   98.000000000000000        13344.000482723150     
   99.000000000000000        13013.092642837002     
   100.00000000000000        12688.451139458735     
   101.00000000000000        12370.048510657412     
   102.00000000000000        12057.852016621446     
   103.00000000000000        11751.823994652232     
   104.00000000000000        11451.922198800357     
   105.00000000000000        11158.100124626641     
   106.00000000000000        10870.307319561331     
   107.00000000000000        10588.489679328162     
   108.00000000000000        10312.589730890701     
   109.00000000000000        10042.546902370981     
   110.00000000000000        9778.2977803804661     
   111.00000000000000        9519.7763551955941     
   112.00000000000000        9266.9142542003829     
   113.00000000000000        9019.6409640093007     
   114.00000000000000        8777.8840416747880     
   115.00000000000000        8541.5693153735629     
   116.00000000000000        8310.6210749574038     
   117.00000000000000        8084.9622527433266     
   118.00000000000000        7864.5145949098096     
   119.00000000000000        7649.1988238553231     
   120.00000000000000        7438.9347918661979     
   121.00000000000000        7233.6416264317622     
   122.00000000000000        7033.2378675346345     
   123.00000000000000        6837.6415972356190     
   124.00000000000000        6646.7705618626333     
   125.00000000000000        6460.5422871044693     
   126.00000000000000        6278.8741863012956     
   127.00000000000000        6101.6836622144856     
   128.00000000000000        5928.8882025500407     
   129.00000000000000        5760.4054695011991     
   130.00000000000000        5596.1533835672117     
   131.00000000000000        5436.0502018970164     
   132.00000000000000        5280.0145913987571     
   133.00000000000000        5127.9656968472846     
   134.00000000000000        4979.8232042150266     
   135.00000000000000        4835.5073994430031     
   136.00000000000000        4694.9392228617444     
   137.00000000000000        4558.0403194645914     
   138.00000000000000        4424.7330852284040     
   139.00000000000000        4294.9407096699542     
   140.00000000000000        4168.5872148194094     
   141.00000000000000        4045.5974907856121     
   142.00000000000000        3925.8973280814994     
   143.00000000000000        3809.4134468715565     
   144.00000000000000        3696.0735232972734     
   145.00000000000000        3585.8062130303247     
   146.00000000000000        3478.5411721977630     
   147.00000000000000        3374.2090758175259     
   148.00000000000000        3272.7416338773282     
   149.00000000000000        3174.0716051846211     
   150.00000000000000        3078.1328091102187     
   151.00000000000000        2984.8601353428871     
   152.00000000000000        2894.1895517680614     
   153.00000000000000        2806.0581105783176     
   154.00000000000000        2720.4039527192831     
   155.00000000000000        2637.1663107700588     
   156.00000000000000        2556.2855103531374     
   157.00000000000000        2477.7029701642809     
   158.00000000000000        2401.3612007094875     
   159.00000000000000        2327.2038018318299     
   160.00000000000000        2255.1754591074091     
   161.00000000000000        2185.2219391862322     
   162.00000000000000        2117.2900841501264     
   163.00000000000000        2051.3278049566779     
   164.00000000000000        1987.2840740349095     
   165.00000000000000        1925.1089170952696     
   166.00000000000000        1864.7534042136363     
   167.00000000000000        1806.1696402460591     
   168.00000000000000        1749.3107546282981     
   169.00000000000000        1694.1308906115630     
   170.00000000000000        1640.5851939831318     
   171.00000000000000        1588.6298013184153     
   172.00000000000000        1538.2218278082462     
   173.00000000000000        1489.3193547033452     
   174.00000000000000        1441.8814164153132     
   175.00000000000000        1395.8679873118315     
   176.00000000000000        1351.2399682413427     
   177.00000000000000        1307.9591728209043     
   178.00000000000000        1265.9883135188350     
   179.00000000000000        1225.2909875620987     
   180.00000000000000        1185.8316626967082     
   181.00000000000000        1147.5756628277188     
   182.00000000000000        1110.4891535639081     
   183.00000000000000        1074.5391276907128     
   184.00000000000000        1039.6933905936178     
   185.00000000000000        1005.9205456527599     
   186.00000000000000        973.18997962828143     
   187.00000000000000        941.47184805472136     
   188.00000000000000        910.73706066147645     
   189.00000000000000        880.95726683538203     
   190.00000000000000        852.10484114018720     
   191.00000000000000        824.15286890685672     
   192.00000000000000        797.07513190756163     
   193.00000000000000        770.84609412529312     
   194.00000000000000        745.44088763014406     
   195.00000000000000        720.83529857251210     
   196.00000000000000        697.00575330260517     
   197.00000000000000        673.92930462490290     
   198.00000000000000        651.58361819550998     
   199.00000000000000        629.94695906961158     
   200.00000000000000        608.99817840565788     
   201.00000000000000        588.71670033218186     
   202.00000000000000        569.08250898269011     
   203.00000000000000        550.07613570339845     
   204.00000000000000        531.67864643813243     
   205.00000000000000        513.87162929419947     
   206.00000000000000        496.63718229252243     
   207.00000000000000        479.95790130498654     
   208.00000000000000        463.81686818139758     
   209.00000000000000        448.19763906816900     
   210.00000000000000        433.08423292042590     
   211.00000000000000        418.46112020888245     
   212.00000000000000        404.31321182250304     
   213.00000000000000        390.62584816768782     
   214.00000000000000        377.38478846438466     
   215.00000000000000        364.57620023929474     
   216.00000000000000        352.18664901607769     
   217.00000000000000        340.20308820220919     
   218.00000000000000        328.61284917195098     
   219.00000000000000        317.40363154465422     
   220.00000000000000        306.56349365745342     
   221.00000000000000        296.08084323123541     
   222.00000000000000        285.94442822853654     
   223.00000000000000        276.14332790199126     
   224.00000000000000        266.66694403168856     
   225.00000000000000        257.50499234972943     
   226.00000000000000        248.64749415017855     
   227.00000000000000        240.08476808242168     
   228.00000000000000        231.80742212591255     
   229.00000000000000        223.80634574417201     
   230.00000000000000        216.07270221580916     
   231.00000000000000        208.59792114029287     
   232.00000000000000        201.37369111610602     
   233.00000000000000        194.39195258887634     
   234.00000000000000        187.64489086701190     
   235.00000000000000        181.12492930234751     
   236.00000000000000        174.82472263323058     
   237.00000000000000        168.73715048748087     
   238.00000000000000        162.85531104261577     
   239.00000000000000        157.17251484069305     
   240.00000000000000        151.68227875514162     
   241.00000000000000        146.37832010690670     
   242.00000000000000        141.25455092722910     
   243.00000000000000        136.30507236440107     
   244.00000000000000        131.52416923180922     
   245.00000000000000        126.90630469457604     
   246.00000000000000        122.44611509215639     
   247.00000000000000        118.13840489419992     
   248.00000000000000        113.97814178704452     
   249.00000000000000        109.96045188818782     
   250.00000000000000        106.08061508613322     
   251.00000000000000        102.33406050298612     
   252.00000000000000        98.716362077235843     
   253.00000000000000        95.223234264145361     
   254.00000000000000        91.850527851225479     
   255.00000000000000        88.594225886272895     
   256.00000000000000        85.450439715492990     
   257.00000000000000        82.415405129248001     
   258.00000000000000        79.485478613005924     
   259.00000000000000        76.657133701095162     
   260.00000000000000        73.926957430898781     
   261.00000000000000        71.291646895158749     
   262.00000000000000        68.748005890092585     
   263.00000000000000        66.292941657054342     
   264.00000000000000        63.923461715515714     
   265.00000000000000        61.636670785169287     
   266.00000000000000        59.429767794996856     
   267.00000000000000        57.300042977177135     
   268.00000000000000        55.244875043747577     
   269.00000000000000        53.261728443972537     
   270.00000000000000        51.348150700397007     
   271.00000000000000        49.501769821614523     
   272.00000000000000        47.720291789803497     
   273.00000000000000        46.001498121132997     
   274.00000000000000        44.343243497167336     
   275.00000000000000        42.743453465435515     
   276.00000000000000        41.200122207377142     
   277.00000000000000        39.711310371902151     
   278.00000000000000        38.275142972841827     
   279.00000000000000        36.889807348606027     
   280.00000000000000        35.553551182394450     
   281.00000000000000        34.264680581344855     
   282.00000000000000        33.021558213039384     
   283.00000000000000        31.822601497819999     
   284.00000000000000        30.666280855401691     
   285.00000000000000        29.551118004303234     
   286.00000000000000        28.475684312653726     
   287.00000000000000        27.438599198956947     
   288.00000000000000        26.438528581438664     
   289.00000000000000        25.474183374626175     
   290.00000000000000        24.544318031844448     
   291.00000000000000        23.647729132345034     
   292.00000000000000        22.783254011811270     
   293.00000000000000        21.949769435017469     
   294.00000000000000        21.146190309446862     
   295.00000000000000        20.371468438703161     
   296.00000000000000        19.624591314578883     
   297.00000000000000        18.904580946673338     
   298.00000000000000        18.210492728478869     
   299.00000000000000        17.541414338881957     
   300.00000000000000        16.896464678053110     
   301.00000000000000        16.274792836725386     
   302.00000000000000        15.675577097886096     
   303.00000000000000        15.098023969932774     
   304.00000000000000        14.541367250369204     
   305.00000000000000        14.004867119140101     
   306.00000000000000        13.487809260727852     
   307.00000000000000        12.989504014158488     
   308.00000000000000        12.509285550085272     
   309.00000000000000        12.046511074140982     
   310.00000000000000        11.600560055773963     
   311.00000000000000        11.170833481799686     
   312.00000000000000        10.756753133925507     
   313.00000000000000        10.357760889522378     
   314.00000000000000        9.9733180449406724     
   315.00000000000000        9.6029046606835688     
   316.00000000000000        9.2460189277732319     
   317.00000000000000        8.9021765546612475     
   318.00000000000000        8.5709101740541076     
   319.00000000000000        8.2517687690430481     
   320.00000000000000        7.9443171179418091     
   321.00000000000000        7.6481352572563734     
   322.00000000000000        7.3628179622248346     
   323.00000000000000        7.0879742443814671     
   324.00000000000000        6.8232268656171922     
   325.00000000000000        6.5682118682198025     
   326.00000000000000        6.3225781203964599     
   327.00000000000000        6.0859868767920942     
   328.00000000000000        5.8581113535335980     
   329.00000000000000        5.6386363173421099     
   330.00000000000000        5.4272576882697852     
   331.00000000000000        5.2236821556306401     
   332.00000000000000        5.0276268067068219     
   333.00000000000000        4.8388187678251704     
   334.00000000000000        4.6569948574098969     
   335.00000000000000        4.4819012506303899     
   336.00000000000000        4.3132931552724747     
   337.00000000000000        4.1509344984747907     
   338.00000000000000        3.9945976239807943     
   339.00000000000000        3.8440629995693407     
   340.00000000000000        3.6991189343347997     
   341.00000000000000        3.5595613054997037     
   342.00000000000000        3.4251932944513528     
   343.00000000000000        3.2958251317034359     
   344.00000000000000        3.1712738504930496     
   345.00000000000000        3.0513630487323273     
   346.00000000000000        2.9359226590424234     
   347.00000000000000        2.8247887266059388     
   348.00000000000000        2.7178031945824763     
   349.00000000000000        2.6148136968390228     
   350.00000000000000        2.5156733577558628     
   351.00000000000000        2.4202405988745666     
   352.00000000000000        2.3283789521636331     
   353.00000000000000        2.2399568796829215     
   354.00000000000000        2.1548475994355991     
   355.00000000000000        2.0729289172029617     
   356.00000000000000        1.9940830641637746     
   357.00000000000000        1.9181965401059700     
   358.00000000000000        1.8451599620447163     
   359.00000000000000        1.7748679180670826     
   360.00000000000000        1.7072188262284422     
   361.00000000000000        1.6421147983322595     
   362.00000000000000        1.5794615084297041     
   363.00000000000000        1.5191680658807503     
   364.00000000000000        1.4611468928239062     
   365.00000000000000        1.4053136059062150     
   366.00000000000000        1.3515869021301874     
   367.00000000000000        1.2998884486787685     
   368.00000000000000        1.2501427765841608     
   369.00000000000000        1.2022771781104580     
   370.00000000000000        1.1562216077243352     
   371.00000000000000        1.1119085865322016     
   372.00000000000000        1.0692731100660320     
   373.00000000000000        1.0282525593040786     
   374.00000000000000       0.98878661481637731     
   375.00000000000000       0.95081717392833398     
   376.00000000000000       0.91428827079960229     
