# Recoil energy (kev)        Event rate (events/gev)
   1.0000000000000000        3.5819518960312919E-005
   2.0000000000000000        6.9292846784794627E-005
   3.0000000000000000        1.0052388547218367E-004
   4.0000000000000000        1.2961321178442010E-004
   5.0000000000000000        1.5665812459552070E-004
   6.0000000000000000        1.8175269575978109E-004
   7.0000000000000000        2.0498782408205439E-004
   8.0000000000000000        2.2645129199942252E-004
   9.0000000000000000        2.4622782461089125E-004
   10.000000000000000        2.6439915071764725E-004
   11.000000000000000        2.8104406556093129E-004
   12.000000000000000        2.9623849496764515E-004
   13.000000000000000        3.1005556063560890E-004
   14.000000000000000        3.2256564631088391E-004
   15.000000000000000        3.3383646462886322E-004
   16.000000000000000        3.4393312440898728E-004
   17.000000000000000        3.5291819821005587E-004
   18.000000000000000        3.6085178996906616E-004
   19.000000000000000        3.6779160256163813E-004
   20.000000000000000        3.7379300513617244E-004
   21.000000000000000        3.7890910008713712E-004
   22.000000000000000        3.8319078954531595E-004
   23.000000000000000        3.8668684127441354E-004
   24.000000000000000        3.8944395387435359E-004
   25.000000000000000        3.9150682120168241E-004
   26.000000000000000        3.9291819592704192E-004
   27.000000000000000        3.9371895215849288E-004
   28.000000000000000        3.9394814706771036E-004
   29.000000000000000        3.9364308146377447E-004
   30.000000000000000        3.9283935926642393E-004
   31.000000000000000        3.9157094583724028E-004
   32.000000000000000        3.8987022513344098E-004
   33.000000000000000        3.8776805565463875E-004
   34.000000000000000        3.8529382515820336E-004
   35.000000000000000        3.8247550412378575E-004
   36.000000000000000        3.7933969795200426E-004
   37.000000000000000        3.7591169788653484E-004
   38.000000000000000        3.7221553065258455E-004
   39.000000000000000        3.6827400680827696E-004
   40.000000000000000        3.6410876780871172E-004
   41.000000000000000        3.5974033178533607E-004
   42.000000000000000        3.5518813804600506E-004
   43.000000000000000        3.5047059030351237E-004
   44.000000000000000        3.4560509864259249E-004
   45.000000000000000        3.4060812023738613E-004
   46.000000000000000        3.3549519883316066E-004
   47.000000000000000        3.3028100300769677E-004
   48.000000000000000        3.2497936322918879E-004
   49.000000000000000        3.1960330772875639E-004
   50.000000000000000        3.1416509720684927E-004
   51.000000000000000        3.0867625839376051E-004
   52.000000000000000        3.0314761648532761E-004
   53.000000000000000        2.9758932647568428E-004
   54.000000000000000        2.9201090340946664E-004
   55.000000000000000        2.8642125157648103E-004
   56.000000000000000        2.8082869267219451E-004
   57.000000000000000        2.7524099294779094E-004
   58.000000000000000        2.6966538937376423E-004
   59.000000000000000        2.6410861484119514E-004
   60.000000000000000        2.5857692242497473E-004
   61.000000000000000        2.5307610873328819E-004
   62.000000000000000        2.4761153636762453E-004
   63.000000000000000        2.4218815551755660E-004
   64.000000000000000        2.3681052471437458E-004
   65.000000000000000        2.3148283076752937E-004
   66.000000000000000        2.2620890790761702E-004
   67.000000000000000        2.2099225615941886E-004
   68.000000000000000        2.1583605896822715E-004
   69.000000000000000        2.1074320010238903E-004
   70.000000000000000        2.0571627985469854E-004
   71.000000000000000        2.0075763056488679E-004
   72.000000000000000        1.9586933148511487E-004
   73.000000000000000        1.9105322300999242E-004
   74.000000000000000        1.8631092029222196E-004
   75.000000000000000        1.8164382626458404E-004
   76.000000000000000        1.7705314408853176E-004
   77.000000000000000        1.7253988904924474E-004
   78.000000000000000        1.6810489991654428E-004
   79.000000000000000        1.6374884979062623E-004
   80.000000000000000        1.5947225645111939E-004
   81.000000000000000        1.5527549222752848E-004
   82.000000000000000        1.5115879340864814E-004
   83.000000000000000        1.4712226920810664E-004
   84.000000000000000        1.4316591030271320E-004
   85.000000000000000        1.3928959695985404E-004
   86.000000000000000        1.3549310676971640E-004
   87.000000000000000        1.3177612199767643E-004
   88.000000000000000        1.2813823657174692E-004
   89.000000000000000        1.2457896271953183E-004
   90.000000000000000        1.2109773726871416E-004
   91.000000000000000        1.1769392762466155E-004
   92.000000000000000        1.1436683743832230E-004
   93.000000000000000        1.1111571197716418E-004
   94.000000000000000        1.0793974321149576E-004
   95.000000000000000        1.0483807462812127E-004
   96.000000000000000        1.0180980578287303E-004
   97.000000000000000        9.8853996603181081E-005
   98.000000000000000        9.5969671451474339E-005
   99.000000000000000        9.3155822959818563E-005
   100.00000000000000        9.0411415645849064E-005
   101.00000000000000        8.7735389319694673E-005
   102.00000000000000        8.5126662291250851E-005
   103.00000000000000        8.2584134386814726E-005
   104.00000000000000        8.0106689783775991E-005
   105.00000000000000        7.7693199671729634E-005
   106.00000000000000        7.5342524748071030E-005
   107.00000000000000        7.3053517555831546E-005
   108.00000000000000        7.0825024671208748E-005
   109.00000000000000        6.8655888747975359E-005
   110.00000000000000        6.6544950425658536E-005
   111.00000000000000        6.4491050108119534E-005
   112.00000000000000        6.2493029618900322E-005
   113.00000000000000        6.0549733739449081E-005
   114.00000000000000        5.8660011636091515E-005
   115.00000000000000        5.6822718181378604E-005
   116.00000000000000        5.5036715175206199E-005
   117.00000000000000        5.3300872470884575E-005
   118.00000000000000        5.1614069011115674E-005
   119.00000000000000        4.9975193778630839E-005
   120.00000000000000        4.8383146666037016E-005
   121.00000000000000        4.6836839269226900E-005
   122.00000000000000        4.5335195608519744E-005
   123.00000000000000        4.3877152781519546E-005
   124.00000000000000        4.2461661551499256E-005
   125.00000000000000        4.1087686874953164E-005
   126.00000000000000        3.9754208371797118E-005
   127.00000000000000        3.8460220741539896E-005
   128.00000000000000        3.7204734128593601E-005
   129.00000000000000        3.5986774439752274E-005
   130.00000000000000        3.4805383616724070E-005
   131.00000000000000        3.3659619866467119E-005
   132.00000000000000        3.2548557851953176E-005
   133.00000000000000        3.1471288845854113E-005
   134.00000000000000        3.0426920849532568E-005
   135.00000000000000        2.9414578679596351E-005
   136.00000000000000        2.8433404024172476E-005
   137.00000000000000        2.7482555470945603E-005
   138.00000000000000        2.6561208508908387E-005
   139.00000000000000        2.5668555505668600E-005
   140.00000000000000        2.4803805662071785E-005
   141.00000000000000        2.3966184945799327E-005
   142.00000000000000        2.3154936005525768E-005
   143.00000000000000        2.2369318067128634E-005
   144.00000000000000        2.1608606813370440E-005
   145.00000000000000        2.0872094248396264E-005
   146.00000000000000        2.0159088548315837E-005
   147.00000000000000        1.9468913899073508E-005
   148.00000000000000        1.8800910322740866E-005
   149.00000000000000        1.8154433493305602E-005
   150.00000000000000        1.7528854542968118E-005
   151.00000000000000        1.6923559859903328E-005
   152.00000000000000        1.6337950878384667E-005
   153.00000000000000        1.5771443862121068E-005
   154.00000000000000        1.5223469681603443E-005
   155.00000000000000        1.4693473586211559E-005
   156.00000000000000        1.4180914971785674E-005
   157.00000000000000        1.3685267144325668E-005
   158.00000000000000        1.3206017080436600E-005
   159.00000000000000        1.2742665185103763E-005
   160.00000000000000        1.2294725047340042E-005
   161.00000000000000        1.1861723194214370E-005
   162.00000000000000        1.1443198843736019E-005
   163.00000000000000        1.1038703657037770E-005
   164.00000000000000        1.0647801490269617E-005
   165.00000000000000        1.0270068146586581E-005
   166.00000000000000        9.9050911285871855E-006
   167.00000000000000        9.5524693915309584E-006
   168.00000000000000        9.2118130976418951E-006
   169.00000000000000        8.8827433717783373E-006
   170.00000000000000        8.5648920587299270E-006
   171.00000000000000        8.2579014823799072E-006
   172.00000000000000        7.9614242069514167E-006
   173.00000000000000        7.6751228005392027E-006
   174.00000000000000        7.3986696011075149E-006
   175.00000000000000        7.1317464851216447E-006
   176.00000000000000        6.8740446389621880E-006
   177.00000000000000        6.6252643332574218E-006
   178.00000000000000        6.3851147002549557E-006
   179.00000000000000        6.1533135143410804E-006
   180.00000000000000        5.9295869758025983E-006
   181.00000000000000        5.7136694979158356E-006
   182.00000000000000        5.5053034974353054E-006
   183.00000000000000        5.3042391885450880E-006
   184.00000000000000        5.1102343803256439E-006
   185.00000000000000        4.9230542777803032E-006
   186.00000000000000        4.7424712864572666E-006
   187.00000000000000        4.5682648206941552E-006
   188.00000000000000        4.4002211155062456E-006
   189.00000000000000        4.2381330421313176E-006
   190.00000000000000        4.0817999272383914E-006
   191.00000000000000        3.9310273758015498E-006
   192.00000000000000        3.7856270976344223E-006
   193.00000000000000        3.6454167375756998E-006
   194.00000000000000        3.5102197093117578E-006
   195.00000000000000        3.3798650328174853E-006
   196.00000000000000        3.2541871753928520E-006
   197.00000000000000        3.1330258962689413E-006
   198.00000000000000        3.0162260947535303E-006
   199.00000000000000        2.9036376618835872E-006
   200.00000000000000        2.7951153355489209E-006
   201.00000000000000        2.6905185590487040E-006
   202.00000000000000        2.5897113430404383E-006
   203.00000000000000        2.4925621308385297E-006
   204.00000000000000        2.3989436670180076E-006
   205.00000000000000        2.3087328692771125E-006
   206.00000000000000        2.2218107035110171E-006
   207.00000000000000        2.1380620620476614E-006
   208.00000000000000        2.0573756449953977E-006
   209.00000000000000        1.9796438446514084E-006
   210.00000000000000        1.9047626329188390E-006
   211.00000000000000        1.8326314516798474E-006
   212.00000000000000        1.7631531060713543E-006
   213.00000000000000        1.6962336606098632E-006
   214.00000000000000        1.6317823381109661E-006
   215.00000000000000        1.5697114213497185E-006
   216.00000000000000        1.5099361574069567E-006
   217.00000000000000        1.4523746646474979E-006
   218.00000000000000        1.3969478422755703E-006
   219.00000000000000        1.3435792824132282E-006
   220.00000000000000        1.2921951846477617E-006
   221.00000000000000        1.2427242729940952E-006
   222.00000000000000        1.1950977152188103E-006
   223.00000000000000        1.1492490444725973E-006
   224.00000000000000        1.1051140831784533E-006
   225.00000000000000        1.0626308691234289E-006
   226.00000000000000        1.0217395837022604E-006
   227.00000000000000        9.8238248226169368E-007
   228.00000000000000        9.4450382649507808E-007
   229.00000000000000        9.0804981883727228E-007
   230.00000000000000        8.7296853881065008E-007
   231.00000000000000        8.3920988127375290E-007
   232.00000000000000        8.0672549652457417E-007
   233.00000000000000        7.7546873221160281E-007
   234.00000000000000        7.4539457700611856E-007
   235.00000000000000        7.1645960599020846E-007
   236.00000000000000        6.8862192771570291E-007
   237.00000000000000        6.6184113288998629E-007
   238.00000000000000        6.3607824464548791E-007
   239.00000000000000        6.1129567035036188E-007
   240.00000000000000        5.8745715491881358E-007
   241.00000000000000        5.6452773558022845E-007
   242.00000000000000        5.4247369806709166E-007
   243.00000000000000        5.2126253418255151E-007
   244.00000000000000        5.0086290070924550E-007
   245.00000000000000        4.8124457962182137E-007
   246.00000000000000        4.6237843956642617E-007
   247.00000000000000        4.4423639857119441E-007
   248.00000000000000        4.2679138795262278E-007
   249.00000000000000        4.1001731738344723E-007
   250.00000000000000        3.9388904108847852E-007
   251.00000000000000        3.7838232513562283E-007
   252.00000000000000        3.6347381579004783E-007
   253.00000000000000        3.4914100890027153E-007
   254.00000000000000        3.3536222028568485E-007
   255.00000000000000        3.2211655709572709E-007
   256.00000000000000        3.0938389011175574E-007
   257.00000000000000        2.9714482696327251E-007
   258.00000000000000        2.8538068623096633E-007
   259.00000000000000        2.7407347240969921E-007
   260.00000000000000        2.6320585170524633E-007
   261.00000000000000        2.5276112863930739E-007
   262.00000000000000        2.4272322343795244E-007
   263.00000000000000        2.3307665017934580E-007
   264.00000000000000        2.2380649567720213E-007
   265.00000000000000        2.1489839907711212E-007
   266.00000000000000        2.0633853214343473E-007
   267.00000000000000        1.9811358021512589E-007
   268.00000000000000        1.9021072380941257E-007
   269.00000000000000        1.8261762085284952E-007
   270.00000000000000        1.7532238951984230E-007
   271.00000000000000        1.6831359165929210E-007
   272.00000000000000        1.6158021679055418E-007
   273.00000000000000        1.5511166665045928E-007
   274.00000000000000        1.4889774027364304E-007
   275.00000000000000        1.4292861958896839E-007
   276.00000000000000        1.3719485551529391E-007
   277.00000000000000        1.3168735454037181E-007
   278.00000000000000        1.2639736576709285E-007
   279.00000000000000        1.2131646841178655E-007
   280.00000000000000        1.1643655973973713E-007
   281.00000000000000        1.1174984342350805E-007
   282.00000000000000        1.0724881831011026E-007
   283.00000000000000        1.0292626758346419E-007
   284.00000000000000        9.8775248309018235E-008
   285.00000000000000        9.4789081347787736E-008
   286.00000000000000        9.0961341627462998E-008
   287.00000000000000        8.7285848758620266E-008
   288.00000000000000        8.3756657984434410E-008
   289.00000000000000        8.0368051452655090E-008
   290.00000000000000        7.7114529798948500E-008
   291.00000000000000        7.3990804031070010E-008
   292.00000000000000        7.0991787703628919E-008
   293.00000000000000        6.8112589373564003E-008
   294.00000000000000        6.5348505326738714E-008
   295.00000000000000        6.2695012566375049E-008
   296.00000000000000        6.0147762054346032E-008
   297.00000000000000        5.7702572196626536E-008
   298.00000000000000        5.5355422564487939E-008
   299.00000000000000        5.3102447843285986E-008
   300.00000000000000        5.0939932000965098E-008
   301.00000000000000        4.8864302668643557E-008
   302.00000000000000        4.6872125725907383E-008
   303.00000000000000        4.4960100083674698E-008
   304.00000000000000        4.3125052657717683E-008
   305.00000000000000        4.1363933526179965E-008
   306.00000000000000        3.9673811264615532E-008
   307.00000000000000        3.8051868452318605E-008
   308.00000000000000        3.6495397343902174E-008
   309.00000000000000        3.5001795700290745E-008
   310.00000000000000        3.3568562773483654E-008
   311.00000000000000        3.2193295439645457E-008
   312.00000000000000        3.0873684475240846E-008
   313.00000000000000        2.9607510971135892E-008
   314.00000000000000        2.8392642879736797E-008
   315.00000000000000        2.7227031690414983E-008
   316.00000000000000        2.6108709228628234E-008
   317.00000000000000        2.5035784574299393E-008
   318.00000000000000        2.4006441095169047E-008
   319.00000000000000        2.3018933590983551E-008
   320.00000000000000        2.2071585544522896E-008
   321.00000000000000        2.1162786475607491E-008
   322.00000000000000        2.0290989394360451E-008
   323.00000000000000        1.9454708350124742E-008
   324.00000000000000        1.8652516072565087E-008
   325.00000000000000        1.7883041701599573E-008
   326.00000000000000        1.7144968602926408E-008
   327.00000000000000        1.6437032266023909E-008
   328.00000000000000        1.5758018281605199E-008
   329.00000000000000        1.5106760395624397E-008
   330.00000000000000        1.4482138637023461E-008
   331.00000000000000        1.3883077516513921E-008
   332.00000000000000        1.3308544293780183E-008
   333.00000000000000        1.2757547310584306E-008
   334.00000000000000        1.2229134387340278E-008
   335.00000000000000        1.1722391280813851E-008
   336.00000000000000        1.1236440200685900E-008
   337.00000000000000        1.0770438382796904E-008
   338.00000000000000        1.0323576716970597E-008
   339.00000000000000        9.8950784273873186E-009
   340.00000000000000        9.4841978035519294E-009
   341.00000000000000        9.0902189799698754E-009
   342.00000000000000        8.7124547627145906E-009
   343.00000000000000        8.3502455011324491E-009
   344.00000000000000        8.0029580029970561E-009
   345.00000000000000        7.6699844914841907E-009
   346.00000000000000        7.3507416023976884E-009
   347.00000000000000        7.0446694201337342E-009
   348.00000000000000        6.7512305509276055E-009
   349.00000000000000        6.4699092319753021E-009
   350.00000000000000        6.2002104750794885E-009
   351.00000000000000        5.9416592435144020E-009
   352.00000000000000        5.6937996608533651E-009
   353.00000000000000        5.4561942505489428E-009
   354.00000000000000        5.2284232050995145E-009
   355.00000000000000        5.0100836836793254E-009
   356.00000000000000        4.8007891371502439E-009
   357.00000000000000        4.6001686594128387E-009
   358.00000000000000        4.4078663640936465E-009
   359.00000000000000        4.2235407856023634E-009
   360.00000000000000        4.0468643036276018E-009
   361.00000000000000        3.8775225901760474E-009
   362.00000000000000        3.7152140782911412E-009
   363.00000000000000        3.5596494516211421E-009
   364.00000000000000        3.4105511540366823E-009
   365.00000000000000        3.2676529185271865E-009
   366.00000000000000        3.1306993146355499E-009
   367.00000000000000        2.9994453137171011E-009
   368.00000000000000        2.8736558713360731E-009
   369.00000000000000        2.7531055261384917E-009
   370.00000000000000        2.6375780145651378E-009
   371.00000000000000        2.5268659007924596E-009
   372.00000000000000        2.4207702213114765E-009
   373.00000000000000        2.3191001435786325E-009
   374.00000000000000        2.2216726381916480E-009
   375.00000000000000        2.1283121640663944E-009
   376.00000000000000        2.0388503661089193E-009
