# Recoil energy (kev)        Event rate (events/gev)
   1.0000000000000000        7579.5245932368425     
   2.0000000000000000        7535.2077030803766     
   3.0000000000000000        7487.7242853135858     
   4.0000000000000000        7437.2018232689716     
   5.0000000000000000        7383.7691945659280     
   6.0000000000000000        7327.5561711656692     
   7.0000000000000000        7268.6929605955729     
   8.0000000000000000        7207.3097859054114     
   9.0000000000000000        7143.5365020362788     
   10.000000000000000        7077.5022463960131     
   11.000000000000000        7009.3351215440798     
   12.000000000000000        6939.1619079928359     
   13.000000000000000        6867.1078052323883     
   14.000000000000000        6793.2961991819393     
   15.000000000000000        6717.8484543624445     
   16.000000000000000        6640.8837291732552     
   17.000000000000000        6562.5188127395331     
   18.000000000000000        6482.8679818778410     
   19.000000000000000        6402.0428768041520     
   20.000000000000000        6320.1523942822141     
   21.000000000000000        6237.3025969804285     
   22.000000000000000        6153.5966378726571     
   23.000000000000000        6069.1346985823438     
   24.000000000000000        5984.0139406306653     
   25.000000000000000        5898.3284686076749     
   26.000000000000000        5812.1693043410905     
   27.000000000000000        5725.6243711904499     
   28.000000000000000        5638.7784876447749     
   29.000000000000000        5551.7133694501435     
   30.000000000000000        5464.5076395392762     
   31.000000000000000        5377.2368450788135     
   32.000000000000000        5289.9734809914717     
   33.000000000000000        5202.7870193496274     
   34.000000000000000        5115.7439440742855     
   35.000000000000000        5028.9077904089936     
   36.000000000000000        4942.3391886720028     
   37.000000000000000        4856.0959118219762     
   38.000000000000000        4770.2329264029704     
   39.000000000000000        4684.8024464631608     
   40.000000000000000        4599.8539900691158     
   41.000000000000000        4515.4344380632274     
   42.000000000000000        4431.5880947364085     
   43.000000000000000        4348.3567501112220     
   44.000000000000000        4265.7797435525981     
   45.000000000000000        4183.8940284438986     
   46.000000000000000        4102.7342376856304     
   47.000000000000000        4022.3327497925488     
   48.000000000000000        3942.7197553822980     
   49.000000000000000        3863.9233238650945     
   50.000000000000000        3785.9694701594563     
   51.000000000000000        3708.8822212735126     
   52.000000000000000        3632.6836826050453     
   53.000000000000000        3557.3941038264184     
   54.000000000000000        3483.0319442325581     
   55.000000000000000        3409.6139374414620     
   56.000000000000000        3337.1551553475165     
   57.000000000000000        3265.6690712377076     
   58.000000000000000        3195.1676219903279     
   59.000000000000000        3125.6612692843914     
   60.000000000000000        3057.1590597563022     
   61.000000000000000        2989.6686840477873     
   62.000000000000000        2923.1965346964207     
   63.000000000000000        2857.7477628265983     
   64.000000000000000        2793.3263336050072     
   65.000000000000000        2729.9350804304509     
   66.000000000000000        2667.5757578332127     
   67.000000000000000        2606.2490930640593     
   68.000000000000000        2545.9548363576032     
   69.000000000000000        2486.6918098590077     
   70.000000000000000        2428.4579552068772     
   71.000000000000000        2371.2503797688432     
   72.000000000000000        2315.0654015296336     
   73.000000000000000        2259.8985926344490     
   74.000000000000000        2205.7448215933314     
   75.000000000000000        2152.5982941546381     
   76.000000000000000        2100.4525928581556     
   77.000000000000000        2049.3007152804289     
   78.000000000000000        1999.1351109868242     
   79.000000000000000        1949.9477172064808     
   80.000000000000000        1901.7299932480180     
   81.000000000000000        1854.4729536749792     
   82.000000000000000        1808.1672002614721     
   83.000000000000000        1762.8029527493488     
   84.000000000000000        1718.3700784293371     
   85.000000000000000        1674.8581205692421     
   86.000000000000000        1632.2563257131424     
   87.000000000000000        1590.5536698759868     
   88.000000000000000        1549.7388836585719     
   89.000000000000000        1509.8004763082358     
   90.000000000000000        1470.7267587508766     
   91.000000000000000        1432.5058656202266     
   92.000000000000000        1395.1257763103395     
   93.000000000000000        1358.5743350774626     
   94.000000000000000        1322.8392702173385     
   95.000000000000000        1287.9082123440990     
   96.000000000000000        1253.7687117967039     
   97.000000000000000        1220.4082551987617     
   98.000000000000000        1187.8142811974767     
   99.000000000000000        1155.9741954070516     
   100.00000000000000        1124.8753845818460     
   101.00000000000000        1094.5052300440884     
   102.00000000000000        1064.8511203907528     
   103.00000000000000        1035.9004635038041     
   104.00000000000000        1007.6406978876346     
   105.00000000000000        980.05930335714709     
   106.00000000000000        953.14381109951296     
   107.00000000000000        926.88181313219548     
   108.00000000000000        901.26097117938980     
   109.00000000000000        876.26902498859351     
   110.00000000000000        851.89380010852244     
   111.00000000000000        828.12321514914004     
   112.00000000000000        804.94528854406610     
   113.00000000000000        782.34814483518187     
   114.00000000000000        760.32002049871778     
   115.00000000000000        738.84926933163399     
   116.00000000000000        717.92436741663403     
   117.00000000000000        697.53391768363656     
   118.00000000000000        677.66665408502740     
   119.00000000000000        658.31144540157857     
   120.00000000000000        639.45729869537183     
   121.00000000000000        621.09336242563018     
   122.00000000000000        603.20892924285158     
   123.00000000000000        585.79343847620271     
   124.00000000000000        568.83647832862300     
   125.00000000000000        552.32778779365265     
   126.00000000000000        536.25725830755800     
   127.00000000000000        520.61493514984170     
   128.00000000000000        505.39101860482566     
   129.00000000000000        490.57586489653528     
   130.00000000000000        476.15998690870981     
   131.00000000000000        462.13405470133819     
   132.00000000000000        448.48889583471635     
   133.00000000000000        435.21549551161382     
   134.00000000000000        422.30499654776514     
   135.00000000000000        409.74869918052690     
   136.00000000000000        397.53806072512197     
   137.00000000000000        385.66469508759832     
   138.00000000000000        374.12037214322930     
   139.00000000000000        362.89701698873739     
   140.00000000000000        351.98670907643685     
   141.00000000000000        341.38168123799153     
   142.00000000000000        331.07431860522922     
   143.00000000000000        321.05715743511314     
   144.00000000000000        311.32288384568352     
   145.00000000000000        301.86433246948110     
   146.00000000000000        292.67448503069573     
   147.00000000000000        283.74646885200434     
   148.00000000000000        275.07355529678284     
   149.00000000000000        266.64915815215608     
   150.00000000000000        258.46683195805383     
   151.00000000000000        250.52027028724726     
   152.00000000000000        242.80330398107037     
   153.00000000000000        235.30989934532474     
   154.00000000000000        228.03415631065496     
   155.00000000000000        220.97030656145105     
   156.00000000000000        214.11271163714940     
   157.00000000000000        207.45586100960494     
   158.00000000000000        200.99437014001589     
   159.00000000000000        194.72297851869814     
   160.00000000000000        188.63654769084692     
   161.00000000000000        182.73005927123364     
   162.00000000000000        176.99861295064107     
   163.00000000000000        171.43742449667801     
   164.00000000000000        166.04182375146658     
   165.00000000000000        160.80725262853932     
   166.00000000000000        155.72926311118070     
   167.00000000000000        150.80351525426414     
   168.00000000000000        146.02577519155165     
   169.00000000000000        141.39191315028168     
   170.00000000000000        136.89790147475594     
   171.00000000000000        132.53981266052602     
   172.00000000000000        128.31381740067377     
   173.00000000000000        124.21618264557620     
   174.00000000000000        120.24326967744621     
   175.00000000000000        116.39153220085305     
   176.00000000000000        112.65751445032284     
   177.00000000000000        109.03784931605561     
   178.00000000000000        105.52925648869038     
   179.00000000000000        102.12854062398866     
   180.00000000000000        98.832589528227928     
   181.00000000000000        95.638372365021667     
   182.00000000000000        92.542937884221530     
   183.00000000000000        89.543412673489826     
   184.00000000000000        86.636999433070429     
   185.00000000000000        83.820975274228104     
   186.00000000000000        81.092690041774446     
   187.00000000000000        78.449564661040156     
   188.00000000000000        75.889089509612390     
   189.00000000000000        73.408822814101754     
   190.00000000000000        71.006389072164367     
   191.00000000000000        68.679477499960228     
   192.00000000000000        66.425840505191374     
   193.00000000000000        64.243292185823563     
   194.00000000000000        62.129706854563672     
   195.00000000000000        60.083017589128723     
   196.00000000000000        58.101214808312520     
   197.00000000000000        56.182344873829891     
   198.00000000000000        54.324508717883383     
   199.00000000000000        52.525860496380659     
   200.00000000000000        50.784606267701022     
   201.00000000000000        49.099002696888043     
   202.00000000000000        47.467355785126728     
   203.00000000000000        45.888019624341347     
   204.00000000000000        44.359395176732164     
   205.00000000000000        42.879929079056623     
   206.00000000000000        41.448112471438399     
   207.00000000000000        40.062479850478937     
   208.00000000000000        38.721607946430041     
   209.00000000000000        37.424114624175871     
   210.00000000000000        36.168657807758436     
   211.00000000000000        34.953934428175458     
   212.00000000000000        33.778679394164726     
   213.00000000000000        32.641664585686911     
   214.00000000000000        31.541697869804302     
   215.00000000000000        30.477622138654066     
   216.00000000000000        29.448314369201775     
   217.00000000000000        28.452684704460776     
   218.00000000000000        27.489675555855793     
   219.00000000000000        26.558260726405905     
   220.00000000000000        25.657444554400715     
   221.00000000000000        24.786261077236830     
   222.00000000000000        23.943773215084285     
   223.00000000000000        23.129071974047712     
   224.00000000000000        22.341275668487061     
   225.00000000000000        21.579529162162352     
   226.00000000000000        20.843003127866918     
   227.00000000000000        20.130893325211240     
   228.00000000000000        19.442419896224653     
   229.00000000000000        18.776826678438887     
   230.00000000000000        18.133380535119709     
   231.00000000000000        17.511370702317198     
   232.00000000000000        16.910108152402355     
   233.00000000000000        16.328924973763460     
   234.00000000000000        15.767173766337381     
   235.00000000000000        15.224227052650750     
   236.00000000000000        14.699476704053467     
   237.00000000000000        14.192333381825518     
   238.00000000000000        13.702225992844010     
   239.00000000000000        13.228601159498840     
   240.00000000000000        12.770922703551150     
   241.00000000000000        12.328671143629165     
   242.00000000000000        11.901343206062663     
   243.00000000000000        11.488451348759455     
   244.00000000000000        11.089523297831860     
   245.00000000000000        10.704101596684312     
   246.00000000000000        10.331743167279287     
   247.00000000000000        9.9720188832998815     
   248.00000000000000        9.6245131549348812     
   249.00000000000000        9.2888235250136866     
   250.00000000000000        8.9645602762244785     
   251.00000000000000        8.6513460491527923     
   252.00000000000000        8.3488154708818545     
   253.00000000000000        8.0566147939007671     
   254.00000000000000        7.7744015450706812     
   255.00000000000000        7.5018441844042032     
   256.00000000000000        7.2386217734165834     
   257.00000000000000        6.9844236528129873     
   258.00000000000000        6.7389491292792760     
   259.00000000000000        6.5019071711490399     
   260.00000000000000        6.2730161127236688     
   261.00000000000000        6.0520033670265088     
   262.00000000000000        5.8386051467766338     
   263.00000000000000        5.6325661933721314     
   264.00000000000000        5.4336395136768765     
   265.00000000000000        5.2415861244091229     
   266.00000000000000        5.0561748039343328     
   267.00000000000000        4.8771818512693219     
   268.00000000000000        4.7043908521079887     
   269.00000000000000        4.5375924516838824     
   270.00000000000000        4.3765841342883416     
   271.00000000000000        4.2211700092672499     
   272.00000000000000        4.0711606033231371     
   273.00000000000000        3.9263726589532055     
   274.00000000000000        3.7866289388581755     
   275.00000000000000        3.6517580361599493     
   276.00000000000000        3.5215941902701364     
   277.00000000000000        3.3959771082554577     
   278.00000000000000        3.2747517915489479     
   279.00000000000000        3.1577683678600383     
   280.00000000000000        3.0448819281398705     
   281.00000000000000        2.9359523684615296     
   282.00000000000000        2.8308442366785189     
   283.00000000000000        2.7294265837278227     
   284.00000000000000        2.6315728194474359     
   285.00000000000000        2.5371605727812936     
   286.00000000000000        2.4460715562475821     
   287.00000000000000        2.3581914345498576     
   288.00000000000000        2.2734096972130144     
   289.00000000000000        2.1916195351293264     
   290.00000000000000        2.1127177209027028     
   291.00000000000000        2.0366044928821427     
   292.00000000000000        1.9631834427780086     
   293.00000000000000        1.8923614067577685     
   294.00000000000000        1.8240483599203392     
   295.00000000000000        1.7581573140507047     
   296.00000000000000        1.6946042185594457     
   297.00000000000000        1.6333078645137855     
   298.00000000000000        1.5741897916697509     
   299.00000000000000        1.5171741984170315     
   300.00000000000000        1.4621878545508400     
   301.00000000000000        1.4091600167869687     
   302.00000000000000        1.3580223469389399     
   303.00000000000000        1.3087088326780354     
   304.00000000000000        1.2611557107991294     
   305.00000000000000        1.2153013929177143     
   306.00000000000000        1.1710863935249938     
   307.00000000000000        1.1284532603304525     
   308.00000000000000        1.0873465068229404     
   309.00000000000000        1.0477125469833626     
   310.00000000000000        1.0094996320837926     
   311.00000000000000       0.97265778950995163     
   312.00000000000000       0.93713876354526271     
   313.00000000000000       0.90289595805701151     
   314.00000000000000       0.86988438102629850     
   315.00000000000000       0.83806059086556273     
   316.00000000000000       0.80738264446862473     
   317.00000000000000       0.77781004694023381     
   318.00000000000000       0.74930370295316662     
   319.00000000000000       0.72182586968278328     
   320.00000000000000       0.69534011127015605     
   321.00000000000000       0.66981125476639636     
   322.00000000000000       0.64520534751221148     
   323.00000000000000       0.62148961590793961     
   324.00000000000000       0.59863242553073659     
   325.00000000000000       0.57660324255681361     
   326.00000000000000       0.55537259644781256     
   327.00000000000000       0.53491204386171121     
   328.00000000000000       0.51519413374971712     
   329.00000000000000       0.49619237360182772     
   330.00000000000000       0.47788119680476016     
   331.00000000000000       0.46023593107715094     
   332.00000000000000       0.44323276794784122     
   333.00000000000000       0.42684873324419548     
   334.00000000000000       0.41106165855831051     
   335.00000000000000       0.39585015365999665     
   336.00000000000000       0.38119357982634050     
   337.00000000000000       0.36707202405850164     
   338.00000000000000       0.35346627415743009     
   339.00000000000000       0.34035779463087978     
   340.00000000000000       0.32772870340506954     
   341.00000000000000       0.31556174931507319     
   342.00000000000000       0.30384029034888121     
   343.00000000000000       0.29254827262075833     
   344.00000000000000       0.28167021005035681     
   345.00000000000000       0.27119116472471760     
   346.00000000000000       0.26109672792101035     
   347.00000000000000       0.25137300176854610     
   348.00000000000000       0.24200658152928162     
   349.00000000000000       0.23298453847663853     
   350.00000000000000       0.22429440335312661     
   351.00000000000000       0.21592415038785884     
   352.00000000000000       0.20786218185561944     
   353.00000000000000       0.20009731315973819     
   354.00000000000000       0.19261875842157880     
   355.00000000000000       0.18541611655999327     
   356.00000000000000       0.17847935784458963     
   357.00000000000000       0.17179881090721880     
   358.00000000000000       0.16536515019653536     
   359.00000000000000       0.15916938386099155     
   360.00000000000000       0.15320284204607890     
   361.00000000000000       0.14745716559208136     
   362.00000000000000       0.14192429511905633     
   363.00000000000000       0.13659646048615606     
   364.00000000000000       0.13146617061284535     
   365.00000000000000       0.12652620364993786     
   366.00000000000000       0.12176959748879863     
   367.00000000000000       0.11718964059738873     
   368.00000000000000       0.11277986317223675     
   369.00000000000000       0.10853402859574370     
   370.00000000000000       0.10444612518858046     
   371.00000000000000       0.10051035824727300     
   372.00000000000000        9.6721142357377499E-002
   373.00000000000000        9.3073093972978818E-002
   374.00000000000000        8.9561024253518765E-002
   375.00000000000000        8.6179932149291247E-002
   376.00000000000000        8.2924997727180677E-002
