# Recoil energy (kev)        Event rate (events/gev)
   1.0000000000000000        72.668498228954846     
   2.0000000000000000        141.17005686432725     
   3.0000000000000000        205.64382866559865     
   4.0000000000000000        266.22785746426081     
   5.0000000000000000        323.05881543793021     
   6.0000000000000000        376.27176727474625     
   7.0000000000000000        425.99995941873419     
   8.0000000000000000        472.37463268615500     
   9.0000000000000000        515.52485663754544     
   10.000000000000000        555.57738418038855     
   11.000000000000000        592.65652496332723     
   12.000000000000000        626.88403620461622     
   13.000000000000000        658.37902967541334     
   14.000000000000000        687.25789363265108     
   15.000000000000000        713.63422856656530     
   16.000000000000000        737.61879569501559     
   17.000000000000000        759.31947720036021     
   18.000000000000000        778.84124726497907     
   19.000000000000000        796.28615301902198     
   20.000000000000000        811.75330456827362     
   21.000000000000000        825.33887332174459     
   22.000000000000000        837.13609788748704     
   23.000000000000000        847.23529685149504     
   24.000000000000000        855.72388779858750     
   25.000000000000000        862.68641197559873     
   26.000000000000000        868.20456403671278     
   27.000000000000000        872.35722634795172     
   28.000000000000000        875.22050736298957     
   29.000000000000000        876.86778361579877     
   30.000000000000000        877.36974490702698     
   31.000000000000000        876.79444229062335     
   32.000000000000000        875.20733849528699     
   33.000000000000000        872.67136044166989     
   34.000000000000000        869.24695354110952     
   35.000000000000000        864.99213748520742     
   36.000000000000000        859.96256325747015     
   37.000000000000000        854.21157111917455     
   38.000000000000000        847.79024934099107     
   39.000000000000000        840.74749347031991     
   40.000000000000000        833.13006594154706     
   41.000000000000000        824.98265585253489     
   42.000000000000000        816.34793874588706     
   43.000000000000000        807.26663624772561     
   44.000000000000000        797.77757543006010     
   45.000000000000000        787.91774777525870     
   46.000000000000000        777.72236763280841     
   47.000000000000000        767.22493006945626     
   48.000000000000000        756.45726802398269     
   49.000000000000000        745.44960868731573     
   50.000000000000000        734.23062903760217     
   51.000000000000000        722.82751046801809     
   52.000000000000000        711.26599245275622     
   53.000000000000000        699.57042520383425     
   54.000000000000000        687.76382127779891     
   55.000000000000000        675.86790609768377     
   56.000000000000000        663.90316736113368     
   57.000000000000000        651.88890331085872     
   58.000000000000000        639.84326984847098     
   59.000000000000000        627.78332647709567     
   60.000000000000000        615.72508106234341     
   61.000000000000000        603.68353340494684     
   62.000000000000000        591.67271762179189     
   63.000000000000000        579.70574333526679     
   64.000000000000000        567.79483567367981     
   65.000000000000000        555.95137408814389     
   66.000000000000000        544.18592999369264     
   67.000000000000000        532.50830324453045     
   68.000000000000000        520.92755745524653     
   69.000000000000000        509.45205418158395     
   70.000000000000000        498.08948597589102     
   71.000000000000000        486.84690833375595     
   72.000000000000000        475.73077054956462     
   73.000000000000000        464.74694549977869     
   74.000000000000000        453.90075837366766     
   75.000000000000000        443.19701437203747     
   76.000000000000000        432.64002539517583     
   77.000000000000000        422.23363574182144     
   78.000000000000000        411.98124684142749     
   79.000000000000000        401.88584104236281     
   80.000000000000000        391.95000447902169     
   81.000000000000000        382.17594904096990     
   82.000000000000000        372.56553346745255     
   83.000000000000000        363.12028359061168     
   84.000000000000000        353.84141175081095     
   85.000000000000000        344.72983540739710     
   86.000000000000000        335.78619496813064     
   87.000000000000000        327.01087086039314     
   88.000000000000000        318.40399986707200     
   89.000000000000000        309.96549074981391     
   90.000000000000000        301.69503918207840     
   91.000000000000000        293.59214201412777     
   92.000000000000000        285.65611089178662     
   93.000000000000000        277.88608525046453     
   94.000000000000000        270.28104470554456     
   95.000000000000000        262.83982085992670     
   96.000000000000000        255.56110854904355     
   97.000000000000000        248.44347654331582     
   98.000000000000000        241.48537772756870     
   99.000000000000000        234.68515877650376     
   100.00000000000000        228.04106934489118     
   101.00000000000000        221.55127079068964     
   102.00000000000000        215.21384444887704     
   103.00000000000000        209.02679947329517     
   104.00000000000000        202.98808026338747     
   105.00000000000000        197.09557349223249     
   106.00000000000000        191.34711475183983     
   107.00000000000000        185.74049483122201     
   108.00000000000000        180.27346564229128     
   109.00000000000000        174.94374580821685     
   110.00000000000000        169.74902592840138     
   111.00000000000000        164.68697353383101     
   112.00000000000000        159.75523774609854     
   113.00000000000000        154.95145365299240     
   114.00000000000000        150.27324641311398     
   115.00000000000000        145.71823510157827     
   116.00000000000000        141.28403630845025     
   117.00000000000000        136.96826750116986     
   118.00000000000000        132.76855016182844     
   119.00000000000000        128.68251270978121     
   120.00000000000000        124.70779321970829     
   121.00000000000000        120.84204194486121     
   122.00000000000000        117.08292365489153     
   123.00000000000000        113.42811979730261     
   124.00000000000000        109.87533049122229     
   125.00000000000000        106.42227636186574     
   126.00000000000000        103.06670022374864     
   127.00000000000000        99.806368620378478     
   128.00000000000000        96.639073227855746     
   129.00000000000000        93.562632129526364     
   130.00000000000000        90.574890968531875     
   131.00000000000000        87.673723984825429     
   132.00000000000000        84.857034942957839     
   133.00000000000000        82.122757956664145     
   134.00000000000000        79.468858216041738     
   135.00000000000000        76.893332622853563     
   136.00000000000000        74.394210339255267     
   137.00000000000000        71.969553255018766     
   138.00000000000000        69.617456378097529     
   139.00000000000000        67.336048153163460     
   140.00000000000000        65.123490712547166     
   141.00000000000000        62.977980063795989     
   142.00000000000000        60.897746217888930     
   143.00000000000000        58.881053261948004     
   144.00000000000000        56.926199380113694     
   145.00000000000000        55.031516826075539     
   146.00000000000000        53.195371850581800     
   147.00000000000000        51.416164587095963     
   148.00000000000000        49.692328898607620     
   149.00000000000000        48.022332188462244     
   150.00000000000000        46.404675177927160     
   151.00000000000000        44.837891653080170     
   152.00000000000000        43.320548183467224     
   153.00000000000000        41.851243814856375     
   154.00000000000000        40.428609738292678     
   155.00000000000000        39.051308937537790     
   156.00000000000000        37.718035816873765     
   157.00000000000000        36.427515811138441     
   158.00000000000000        35.178504979758451     
   159.00000000000000        33.969789586450538     
   160.00000000000000        32.800185666165753     
   161.00000000000000        31.668538580761389     
   162.00000000000000        30.573722564801027     
   163.00000000000000        29.514640262801091     
   164.00000000000000        28.490222259163399     
   165.00000000000000        27.499426601956319     
   166.00000000000000        26.541238321644190     
   167.00000000000000        25.614668945783066     
   168.00000000000000        24.718756010649187     
   169.00000000000000        23.852562570696669     
   170.00000000000000        23.015176706685217     
   171.00000000000000        22.205711033261494     
   172.00000000000000        21.423302206724244     
   173.00000000000000        20.667110433654468     
   174.00000000000000        19.936318981040319     
   175.00000000000000        19.230133688484592     
   176.00000000000000        18.547782483034517     
   177.00000000000000        17.888514897137089     
   178.00000000000000        17.251601590179380     
   179.00000000000000        16.636333874040268     
   180.00000000000000        16.042023243040994     
   181.00000000000000        15.468000908652094     
   182.00000000000000        14.913617339279432     
   183.00000000000000        14.378241805425338     
   184.00000000000000        13.861261930489766     
   185.00000000000000        13.362083247451942     
   186.00000000000000        12.880128761647184     
   187.00000000000000        12.414838519828598     
   188.00000000000000        11.965669185683748     
   189.00000000000000        11.532093621952216     
   190.00000000000000        11.113600479272929     
   191.00000000000000        10.709693791869777     
   192.00000000000000        10.319892580167563     
   193.00000000000000        9.9437304604133132     
   194.00000000000000        9.5807552613631959     
   195.00000000000000        9.2305286480809965     
   196.00000000000000        8.8926257528795496     
   197.00000000000000        8.5666348134263899     
   198.00000000000000        8.2521568180200049     
   199.00000000000000        7.9488051580354506     
   200.00000000000000        7.6562052875256494     
   201.00000000000000        7.3739943899564278     
   202.00000000000000        7.1018210520445244     
   203.00000000000000        6.8393449446596062     
   204.00000000000000        6.5862365107436869     
   205.00000000000000        6.3421766601956149     
   206.00000000000000        6.1068564716604632     
   207.00000000000000        5.8799769011592957     
   208.00000000000000        5.6612484974886232     
   209.00000000000000        5.4503911243147956     
   210.00000000000000        5.2471336888836833     
   211.00000000000000        5.0512138772625912     
   212.00000000000000        4.8623778960273221     
   213.00000000000000        4.6803802203049960     
   214.00000000000000        4.5049833480791799     
   215.00000000000000        4.3359575606631733     
   216.00000000000000        4.1730806892432364     
   217.00000000000000        4.0161378873934463     
   218.00000000000000        3.8649214094611173     
   219.00000000000000        3.7192303947207752     
   220.00000000000000        3.5788706571942064     
   221.00000000000000        3.4436544810319423     
   222.00000000000000        3.3134004213524393     
   223.00000000000000        3.1879331104335056     
   224.00000000000000        3.0670830691511242     
   225.00000000000000        2.9506865235602109     
   226.00000000000000        2.8385852265125795     
   227.00000000000000        2.7306262842064868     
   228.00000000000000        2.6266619875639599     
   229.00000000000000        2.5265496483313639     
   230.00000000000000        2.4301514397998147     
   231.00000000000000        2.3373342420430419     
   232.00000000000000        2.2479694915702706     
   233.00000000000000        2.1619330352935391     
   234.00000000000000        2.0791049887093331     
   235.00000000000000        1.9993695981953428     
   236.00000000000000        1.9226151073249371     
   237.00000000000000        1.8487336271023935     
   238.00000000000000        1.7776210100237335     
   239.00000000000000        1.7091767278688803     
   240.00000000000000        1.6433037531327497     
   241.00000000000000        1.5799084440035374     
   242.00000000000000        1.5189004327986215     
   243.00000000000000        1.4601925177694175     
   244.00000000000000        1.4037005581883097     
   245.00000000000000        1.3493433726320299     
   246.00000000000000        1.2970426403777100     
   247.00000000000000        1.2467228058288864     
   248.00000000000000        1.1983109858908103     
   249.00000000000000        1.1517368802155126     
   250.00000000000000        1.1069326842388512     
   251.00000000000000        1.0638330049333486     
   252.00000000000000        1.0223747792020397     
   253.00000000000000       0.98249719484019538     
   254.00000000000000       0.94414161399331620     
   255.00000000000000       0.90725149904133817     
   256.00000000000000       0.87177234084052346     
   257.00000000000000       0.83765158925597838     
   258.00000000000000       0.80483858591936597     
   259.00000000000000       0.77328449914775810     
   260.00000000000000       0.74294226096113725     
   261.00000000000000       0.71376650613747816     
   262.00000000000000       0.68571351324582519     
   263.00000000000000       0.65874114759920943     
   264.00000000000000       0.63280880607061862     
   265.00000000000000       0.60787736371674372     
   266.00000000000000       0.58390912215541169     
   267.00000000000000       0.56086775964424573     
   268.00000000000000       0.53871828280910861     
   269.00000000000000       0.51742697997248943     
   270.00000000000000       0.49696137603309543     
   271.00000000000000       0.47729018884926294     
   272.00000000000000       0.45838328708004511     
   273.00000000000000       0.44021164943902108     
   274.00000000000000       0.42274732531712883     
   275.00000000000000       0.40596339673197435     
   276.00000000000000       0.38983394156218409     
   277.00000000000000       0.37433399802661615     
   278.00000000000000       0.35943953036923065     
   279.00000000000000       0.34512739571157153     
   280.00000000000000       0.33137531203589332     
   281.00000000000000       0.31816182726293935     
   282.00000000000000       0.30546628938947895     
   283.00000000000000       0.29326881765163271     
   284.00000000000000       0.28155027468104649     
   285.00000000000000       0.27029223962189480     
   286.00000000000000       0.25947698217760951     
   287.00000000000000       0.24908743755719373     
   288.00000000000000       0.23910718229180847     
   289.00000000000000       0.22952041089319733     
   290.00000000000000       0.22031191332638897     
   291.00000000000000       0.21146705326990153     
   292.00000000000000       0.20297174713748570     
   293.00000000000000       0.19481244383624366     
   294.00000000000000       0.18697610523669686     
   295.00000000000000       0.17945018733112139     
   296.00000000000000       0.17222262205722302     
   297.00000000000000       0.16528179976487561     
   298.00000000000000       0.15861655230438301     
   299.00000000000000       0.15221613671535436     
   300.00000000000000       0.14607021949596005     
   301.00000000000000       0.14016886143293361     
   302.00000000000000       0.13450250297333552     
   303.00000000000000       0.12906195011967805     
   304.00000000000000       0.12383836083056113     
   305.00000000000000       0.11882323190960377     
   306.00000000000000       0.11400838636591938     
   307.00000000000000       0.10938596122998642     
   308.00000000000000       0.10494839580924722     
   309.00000000000000       0.10068842036828353     
   310.00000000000000        9.6599045218887736E-002
   311.00000000000000        9.2673550205870980E-002
   312.00000000000000        8.8905474574835275E-002
   313.00000000000000        8.5288607208665157E-002
   314.00000000000000        8.1816977219862308E-002
   315.00000000000000        7.8484844886311009E-002
   316.00000000000000        7.5286692918443615E-002
   317.00000000000000        7.2217218046195408E-002
   318.00000000000000        6.9271322914497307E-002
   319.00000000000000        6.6444108276451058E-002
   320.00000000000000        6.3730865473677858E-002
   321.00000000000000        6.1127069193686594E-002
   322.00000000000000        5.8628370494454782E-002
   323.00000000000000        5.6230590086726304E-002
   324.00000000000000        5.3929711864871839E-002
   325.00000000000000        5.1721876677448965E-002
   326.00000000000000        4.9603376328909446E-002
   327.00000000000000        4.7570647804187023E-002
   328.00000000000000        4.5620267708176933E-002
   329.00000000000000        4.3748946912401360E-002
   330.00000000000000        4.1953525401404214E-002
   331.00000000000000        4.0230967311686835E-002
   332.00000000000000        3.8578356156233722E-002
   333.00000000000000        3.6992890227924458E-002
   334.00000000000000        3.5471878175350573E-002
   335.00000000000000        3.4012734744788518E-002
   336.00000000000000        3.2612976682294750E-002
   337.00000000000000        3.1270218790089184E-002
   338.00000000000000        2.9982170131614479E-002
   339.00000000000000        2.8746630379834871E-002
   340.00000000000000        2.7561486303544640E-002
   341.00000000000000        2.6424708386626000E-002
   342.00000000000000        2.5334347575387876E-002
   343.00000000000000        2.4288532149273397E-002
   344.00000000000000        2.3285464710403346E-002
   345.00000000000000        2.2323419287574649E-002
   346.00000000000000        2.1400738550491110E-002
   347.00000000000000        2.0515831130152349E-002
   348.00000000000000        1.9667169041475335E-002
   349.00000000000000        1.8853285204355391E-002
   350.00000000000000        1.8072771059516147E-002
   351.00000000000000        1.7324274275626415E-002
   352.00000000000000        1.6606496544283908E-002
   353.00000000000000        1.5918191459593542E-002
   354.00000000000000        1.5258162479182880E-002
   355.00000000000000        1.4625260963610553E-002
   356.00000000000000        1.4018384291235329E-002
   357.00000000000000        1.3436474045716114E-002
   358.00000000000000        1.2878514273419982E-002
   359.00000000000000        1.2343529808110687E-002
   360.00000000000000        1.1830584660385862E-002
   361.00000000000000        1.1338780469425942E-002
   362.00000000000000        1.0867255014702853E-002
   363.00000000000000        1.0415180785385163E-002
   364.00000000000000        9.9817636052585614E-003
   365.00000000000000        9.5662413110588120E-003
   366.00000000000000        9.1678824821939484E-003
   367.00000000000000        8.7859852199048422E-003
   368.00000000000000        8.4198759739862582E-003
   369.00000000000000        8.0689084152586465E-003
   370.00000000000000        7.7324623520487528E-003
   371.00000000000000        7.4099426890010490E-003
   372.00000000000000        7.1007784266034985E-003
   373.00000000000000        6.8044216998730030E-003
   374.00000000000000        6.5203468547001472E-003
   375.00000000000000        6.2480495604133037E-003
   376.00000000000000        5.9870459571711556E-003
