# Recoil energy (kev)        Event rate (events/gev)
   1.0000000000000000        2.3178242413870889     
   2.0000000000000000        2.2419150907713337     
   3.0000000000000000        2.1682470511527394     
   4.0000000000000000        2.0967663298899364     
   5.0000000000000000        2.0274197470694002     
   6.0000000000000000        1.9601547734950326     
   7.0000000000000000        1.8949195647943811     
   8.0000000000000000        1.8316629918771323     
   9.0000000000000000        1.7703346679699172     
   10.000000000000000        1.7108849724402548     
   11.000000000000000        1.6532650716119217     
   12.000000000000000        1.5974269367636229     
   13.000000000000000        1.5433233594931697     
   14.000000000000000        1.4909079646201682     
   15.000000000000000        1.4401352207909666     
   16.000000000000000        1.3909604489413467     
   17.000000000000000        1.3433398287642362     
   18.000000000000000        1.2972304033217972     
   19.000000000000000        1.2525900819339928     
   20.000000000000000        1.2093776414684676     
   21.000000000000000        1.1675527261499501     
   22.000000000000000        1.1270758460008377     
   23.000000000000000        1.0879083740184221     
   24.000000000000000        1.0500125421885305     
   25.000000000000000        1.0133514364294791     
   26.000000000000000       0.97788899055516076     
   27.000000000000000       0.94358997934087074     
   28.000000000000000       0.91042001077064894     
   29.000000000000000       0.87834551754036683     
   30.000000000000000       0.84733374788638194     
   31.000000000000000       0.81735275580538702     
   32.000000000000000       0.78837139072717843     
   33.000000000000000       0.76035928669828290     
   34.000000000000000       0.73328685113076986     
   35.000000000000000       0.70712525316727914     
   36.000000000000000       0.68184641170992566     
   37.000000000000000       0.65742298315784697     
   38.000000000000000       0.63382834889512141     
   39.000000000000000       0.61103660256810799     
   40.000000000000000       0.58902253718864539     
   41.000000000000000       0.56776163209704278     
   42.000000000000000       0.54723003981649287     
   43.000000000000000       0.52740457282828546     
   44.000000000000000       0.50826269029515359     
   45.000000000000000       0.48978248475804476     
   46.000000000000000       0.47194266882976987     
   47.000000000000000       0.45472256190721061     
   48.000000000000000       0.43810207692208863     
   49.000000000000000       0.42206170714869773     
   50.000000000000000       0.40658251308556326     
   51.000000000000000       0.39164610942653943     
   52.000000000000000       0.37723465213553481     
   53.000000000000000       0.36333082563787289     
   54.000000000000000       0.34991783014001249     
   55.000000000000000       0.33697936908835407     
   56.000000000000000       0.32449963677676191     
   57.000000000000000       0.31246330611145812     
   58.000000000000000       0.30085551654107268     
   59.000000000000000       0.28966186215871775     
   60.000000000000000       0.27886837998218772     
   61.000000000000000       0.26846153841764131     
   62.000000000000000       0.25842822591136888     
   63.000000000000000       0.24875573979365304     
   64.000000000000000       0.23943177531806162     
   65.000000000000000       0.23044441489896958     
   66.000000000000000       0.22178211754956106     
   67.000000000000000       0.21343370852207319     
   68.000000000000000       0.20538836915156128     
   69.000000000000000       0.19763562690405731     
   70.000000000000000       0.19016534562958864     
   71.000000000000000       0.18296771602014672     
   72.000000000000000       0.17603324627236469     
   73.000000000000000       0.16935275295434676     
   74.000000000000000       0.16291735207579752     
   75.000000000000000       0.15671845036034149     
   76.000000000000000       0.15074773671867189     
   77.000000000000000       0.14499717392094963     
   78.000000000000000       0.13945899046666968     
   79.000000000000000       0.13412567265002098     
   80.000000000000000       0.12898995681861114     
   81.000000000000000       0.12404482182326146     
   82.000000000000000       0.11928348165645299     
   83.000000000000000       0.11469937827687549     
   84.000000000000000       0.11028617461742919     
   85.000000000000000       0.10603774777392967     
   86.000000000000000       0.10194818237168193     
   87.000000000000000        9.8011764107021504E-002
   88.000000000000000        9.4222973460853884E-002
   89.000000000000000        9.0576479581173527E-002
   90.000000000000000        8.7067134331497736E-002
   91.000000000000000        8.3689966502119420E-002
   92.000000000000000        8.0440176181048248E-002
   93.000000000000000        7.7313129281500637E-002
   94.000000000000000        7.4304352222769238E-002
   95.000000000000000        7.1409526761315109E-002
   96.000000000000000        6.8624484968905941E-002
   97.000000000000000        6.5945204354637882E-002
   98.000000000000000        6.3367803127686625E-002
   99.000000000000000        6.0888535597640410E-002
   100.00000000000000        5.8503787709293792E-002
   101.00000000000000        5.6210072708792289E-002
   102.00000000000000        5.4004026938052854E-002
   103.00000000000000        5.1882405754403359E-002
   104.00000000000000        4.9842079572422503E-002
   105.00000000000000        4.7880030024989181E-002
   106.00000000000000        4.5993346240590156E-002
   107.00000000000000        4.4179221233969931E-002
   108.00000000000000        4.2434948407246056E-002
   109.00000000000000        4.0757918158658216E-002
   110.00000000000000        3.9145614596155696E-002
   111.00000000000000        3.7595612353079011E-002
   112.00000000000000        3.6105573503229918E-002
   113.00000000000000        3.4673244572676010E-002
   114.00000000000000        3.3296453645678709E-002
   115.00000000000000        3.1973107562182877E-002
   116.00000000000000        3.0701189204354603E-002
   117.00000000000000        2.9478754869701598E-002
   118.00000000000000        2.8303931728359516E-002
   119.00000000000000        2.7174915362176807E-002
   120.00000000000000        2.6089967383280545E-002
   121.00000000000000        2.5047413129852408E-002
   122.00000000000000        2.4045639436896304E-002
   123.00000000000000        2.3083092479826255E-002
   124.00000000000000        2.2158275688752067E-002
   125.00000000000000        2.1269747731387751E-002
   126.00000000000000        2.0416120562559197E-002
   127.00000000000000        1.9596057538331834E-002
   128.00000000000000        1.8808271592826858E-002
   129.00000000000000        1.8051523475843587E-002
   130.00000000000000        1.7324620049449697E-002
   131.00000000000000        1.6626412641747267E-002
   132.00000000000000        1.5955795456068608E-002
   133.00000000000000        1.5311704033898477E-002
   134.00000000000000        1.4693113769866213E-002
   135.00000000000000        1.4099038477190863E-002
   136.00000000000000        1.3528529002008023E-002
   137.00000000000000        1.2980671885046900E-002
   138.00000000000000        1.2454588069168526E-002
   139.00000000000000        1.1949431651315104E-002
   140.00000000000000        1.1464388677461801E-002
   141.00000000000000        1.0998675979199320E-002
   142.00000000000000        1.0551540050614963E-002
   143.00000000000000        1.0122255964176955E-002
   144.00000000000000        9.7101263243629197E-003
   145.00000000000000        9.3144802578102766E-003
   146.00000000000000        8.9346724387997616E-003
   147.00000000000000        8.5700821489194407E-003
   148.00000000000000        8.2201123697886319E-003
   149.00000000000000        7.8841889077546513E-003
   150.00000000000000        7.5617595495070314E-003
   151.00000000000000        7.2522932475858719E-003
   152.00000000000000        6.9552793347897584E-003
   153.00000000000000        6.6702267665208021E-003
   154.00000000000000        6.3966633901314605E-003
   155.00000000000000        6.1341352403674531E-003
   156.00000000000000        5.8822058600276851E-003
   157.00000000000000        5.6404556449902330E-003
   158.00000000000000        5.4084812127782747E-003
   159.00000000000000        5.1858947938667769E-003
   160.00000000000000        4.9723236449548602E-003
   161.00000000000000        4.7674094834529689E-003
   162.00000000000000        4.5708079424580401E-003
   163.00000000000000        4.3821880455125776E-003
   164.00000000000000        4.2012317004656062E-003
   165.00000000000000        4.0276332117756657E-003
   166.00000000000000        3.8610988106169584E-003
   167.00000000000000        3.7013462021699504E-003
   168.00000000000000        3.5481041294982132E-003
   169.00000000000000        3.4011119534323266E-003
   170.00000000000000        3.2601192479006086E-003
   171.00000000000000        3.1248854101646427E-003
   172.00000000000000        2.9951792854353548E-003
   173.00000000000000        2.8707788053629023E-003
   174.00000000000000        2.7514706399096303E-003
   175.00000000000000        2.6370498621326702E-003
   176.00000000000000        2.5273196254173825E-003
   177.00000000000000        2.4220908527190299E-003
   178.00000000000000        2.3211819373841459E-003
   179.00000000000000        2.2244184551382441E-003
   180.00000000000000        2.1316328868395589E-003
   181.00000000000000        2.0426643516127034E-003
   182.00000000000000        1.9573583499889139E-003
   183.00000000000000        1.8755665166922438E-003
   184.00000000000000        1.7971463827234648E-003
   185.00000000000000        1.7219611464051967E-003
   186.00000000000000        1.6498794530635354E-003
   187.00000000000000        1.5807751830322811E-003
   188.00000000000000        1.5145272476770942E-003
   189.00000000000000        1.4510193931470117E-003
   190.00000000000000        1.3901400115710885E-003
   191.00000000000000        1.3317819594277371E-003
   192.00000000000000        1.2758423828237357E-003
   193.00000000000000        1.2222225494290886E-003
   194.00000000000000        1.1708276868229292E-003
   195.00000000000000        1.1215668270140680E-003
   196.00000000000000        1.0743526569082066E-003
   197.00000000000000        1.0291013745019287E-003
   198.00000000000000        9.8573255059120025E-004
   199.00000000000000        9.4416899578980674E-004
   200.00000000000000        9.0433663266029595E-004
   201.00000000000000        8.6616437276705474E-004
   202.00000000000000        8.2958399846802804E-004
   203.00000000000000        7.9453004926798498E-004
   204.00000000000000        7.6093971256271735E-004
   205.00000000000000        7.2875271860964991E-004
   206.00000000000000        6.9791123956623030E-004
   207.00000000000000        6.6835979244321466E-004
   208.00000000000000        6.4004514582546336E-004
   209.00000000000000        6.1291623021826386E-004
   210.00000000000000        5.8692405188225582E-004
   211.00000000000000        5.6202161002507148E-004
   212.00000000000000        5.3816381722259215E-004
   213.00000000000000        5.1530742294739098E-004
   214.00000000000000        4.9341094008628693E-004
   215.00000000000000        4.7243457433348825E-004
   216.00000000000000        4.5234015634968051E-004
   217.00000000000000        4.3309107658171865E-004
   218.00000000000000        4.1465222264126534E-004
   219.00000000000000        3.9698991914455164E-004
   220.00000000000000        3.8007186991907937E-004
   221.00000000000000        3.6386710248647756E-004
   222.00000000000000        3.4834591473418126E-004
   223.00000000000000        3.3347982369180538E-004
   224.00000000000000        3.1924151633120116E-004
   225.00000000000000        3.0560480231224589E-004
   226.00000000000000        2.9254456859929308E-004
   227.00000000000000        2.8003673587601317E-004
   228.00000000000000        2.6805821668909213E-004
   229.00000000000000        2.5658687525383523E-004
   230.00000000000000        2.4560148885723933E-004
   231.00000000000000        2.3508171079655903E-004
   232.00000000000000        2.2500803479364890E-004
   233.00000000000000        2.1536176082771576E-004
   234.00000000000000        2.0612496233120259E-004
   235.00000000000000        1.9728045469565248E-004
   236.00000000000000        1.8881176503641989E-004
   237.00000000000000        1.8070310316701995E-004
   238.00000000000000        1.7293933373579266E-004
   239.00000000000000        1.6550594947933788E-004
   240.00000000000000        1.5838904554894994E-004
   241.00000000000000        1.5157529486790959E-004
   242.00000000000000        1.4505192447912890E-004
   243.00000000000000        1.3880669284418727E-004
   244.00000000000000        1.3282786805628917E-004
   245.00000000000000        1.2710420693110906E-004
   246.00000000000000        1.2162493494088209E-004
   247.00000000000000        1.1637972695841995E-004
   248.00000000000000        1.1135868877902855E-004
   249.00000000000000        1.0655233938952449E-004
   250.00000000000000        1.0195159395475043E-004
   251.00000000000000        9.7547747493124709E-005
   252.00000000000000        9.3332459213867758E-005
   253.00000000000000        8.9297737489602369E-005
   254.00000000000000        8.5435925439056263E-005
   255.00000000000000        8.1739687095561773E-005
   256.00000000000000        7.8201994138011935E-005
   257.00000000000000        7.4816113161820026E-005
   258.00000000000000        7.1575593468325052E-005
   259.00000000000000        6.8474255351913939E-005
   260.00000000000000        6.5506178864946894E-005
   261.00000000000000        6.2665693041348563E-005
   262.00000000000000        5.9947365560480413E-005
   263.00000000000000        5.7345992833630576E-005
   264.00000000000000        5.4856590496143828E-005
   265.00000000000000        5.2474384288894867E-005
   266.00000000000000        5.0194801313433502E-005
   267.00000000000000        4.8013461645761497E-005
   268.00000000000000        4.5926170294284019E-005
   269.00000000000000        4.3928909488054763E-005
   270.00000000000000        4.2017831281979017E-005
   271.00000000000000        4.0189250466169822E-005
   272.00000000000000        3.8439637767153110E-005
   273.00000000000000        3.6765613329114931E-005
   274.00000000000000        3.5163940463841395E-005
   275.00000000000000        3.3631519658462336E-005
   276.00000000000000        3.2165382830533497E-005
   277.00000000000000        3.0762687820418644E-005
   278.00000000000000        2.9420713111322396E-005
   279.00000000000000        2.8136852767715837E-005
   280.00000000000000        2.6908611583266432E-005
   281.00000000000000        2.5733600429733733E-005
   282.00000000000000        2.4609531798639651E-005
   283.00000000000000        2.3534215527846213E-005
   284.00000000000000        2.2505554705489569E-005
   285.00000000000000        2.1521541744023403E-005
   286.00000000000000        2.0580254617412145E-005
   287.00000000000000        1.9679853254798765E-005
   288.00000000000000        1.8818576084235598E-005
   289.00000000000000        1.7994736720328163E-005
   290.00000000000000        1.7206720789886223E-005
   291.00000000000000        1.6452982889919744E-005
   292.00000000000000        1.5732043672538257E-005
   293.00000000000000        1.5042487051539595E-005
   294.00000000000000        1.4382957525679122E-005
   295.00000000000000        1.3752157613816006E-005
   296.00000000000000        1.3148845397326606E-005
   297.00000000000000        1.2571832165361788E-005
   298.00000000000000        1.2019980158705328E-005
   299.00000000000000        1.1492200408160539E-005
   300.00000000000000        1.0987450663561160E-005
   301.00000000000000        1.0504733409656975E-005
   302.00000000000000        1.0043093965281218E-005
   303.00000000000000        9.6016186623509815E-006
   304.00000000000000        9.1794331013914032E-006
   305.00000000000000        8.7757004804134196E-006
   306.00000000000000        8.3896199940984316E-006
   307.00000000000000        8.0204253003732571E-006
   308.00000000000000        7.6673830515745764E-006
   309.00000000000000        7.3297914875176589E-006
   310.00000000000000        7.0069790878936249E-006
   311.00000000000000        6.6983032815271631E-006
   312.00000000000000        6.4031492101237152E-006
   313.00000000000000        6.1209285442370747E-006
   314.00000000000000        5.8510783492780283E-006
   315.00000000000000        5.5930599994760047E-006
   316.00000000000000        5.3463581377910723E-006
   317.00000000000000        5.1104796798561700E-006
   318.00000000000000        4.8849528601081385E-006
   319.00000000000000        4.6693263183428250E-006
   320.00000000000000        4.4631682250015680E-006
   321.00000000000000        4.2660654435664184E-006
   322.00000000000000        4.0776227285090998E-006
   323.00000000000000        3.8974619573016830E-006
   324.00000000000000        3.7252213950603728E-006
   325.00000000000000        3.5605549904511520E-006
   326.00000000000000        3.4031317015442917E-006
   327.00000000000000        3.2526348503586587E-006
   328.00000000000000        3.1087615048881178E-006
   329.00000000000000        2.9712218874542404E-006
   330.00000000000000        2.8397388082758141E-006
   331.00000000000000        2.7140471231927628E-006
   332.00000000000000        2.5938932145259795E-006
   333.00000000000000        2.4790344940969631E-006
   334.00000000000000        2.3692389274716605E-006
   335.00000000000000        2.2642845785323096E-006
   336.00000000000000        2.1639591735181377E-006
   337.00000000000000        2.0680596837114138E-006
   338.00000000000000        1.9763919259803831E-006
   339.00000000000000        1.8887701804229336E-006
   340.00000000000000        1.8050168243868047E-006
   341.00000000000000        1.7249619821722079E-006
   342.00000000000000        1.6484431897521617E-006
   343.00000000000000        1.5753050738731165E-006
   344.00000000000000        1.5053990449257720E-006
   345.00000000000000        1.4385830030011559E-006
   346.00000000000000        1.3747210565716567E-006
   347.00000000000000        1.3136832532602855E-006
   348.00000000000000        1.2553453221842946E-006
   349.00000000000000        1.1995884273799876E-006
   350.00000000000000        1.1462989318374365E-006
   351.00000000000000        1.0953681716928403E-006
   352.00000000000000        1.0466922401456061E-006
   353.00000000000000        1.0001717806854685E-006
   354.00000000000000        9.5571178923240075E-007
   355.00000000000000        9.1322142480887761E-007
   356.00000000000000        8.7261382838009766E-007
   357.00000000000000        8.3380594951305648E-007
   358.00000000000000        7.9671838052030492E-007
   359.00000000000000        7.6127519776822367E-007
   360.00000000000000        7.2740380984316779E-007
   361.00000000000000        6.9503481228200351E-007
   362.00000000000000        6.6410184858569200E-007
   363.00000000000000        6.3454147724677778E-007
   364.00000000000000        6.0629304453293851E-007
   365.00000000000000        5.7929856277957766E-007
   366.00000000000000        5.5350259395516322E-007
   367.00000000000000        5.2885213827285997E-007
   368.00000000000000        5.0529652763169150E-007
   369.00000000000000        4.8278732367970458E-007
   370.00000000000000        4.6127822030038341E-007
   371.00000000000000        4.4072495033210219E-007
   372.00000000000000        4.2108519633835553E-007
   373.00000000000000        4.0231850525451063E-007
   374.00000000000000        3.8438620674393121E-007
   375.00000000000000        3.6725133510379969E-007
   376.00000000000000        3.5087855456750056E-007
