# Recoil energy (kev)        Event rate (events/gev)
   1.0000000000000000        29990725907.743046     
   2.0000000000000000        29208573768.914707     
   3.0000000000000000        28441356566.578033     
   4.0000000000000000        27689089108.456657     
   5.0000000000000000        26951764050.554214     
   6.0000000000000000        26229353473.865028     
   7.0000000000000000        25521810379.548824     
   8.0000000000000000        24829070106.111080     
   9.0000000000000000        24151051672.000484     
   10.000000000000000        23487659046.906422     
   11.000000000000000        22838782354.917229     
   12.000000000000000        22204299012.579094     
   13.000000000000000        21584074804.780186     
   14.000000000000000        20977964901.271412     
   15.000000000000000        20385814816.526672     
   16.000000000000000        19807461315.540009     
   17.000000000000000        19242733268.054058     
   18.000000000000000        18691452453.616749     
   19.000000000000000        18153434319.766464     
   20.000000000000000        17628488695.554092     
   21.000000000000000        17116420462.520834     
   22.000000000000000        16617030185.164726     
   23.000000000000000        16130114702.845112     
   24.000000000000000        15655467684.994089     
   25.000000000000000        15192880151.426586     
   26.000000000000000        14742140959.465431     
   27.000000000000000        14303037259.525808     
   28.000000000000000        13875354920.733896     
   29.000000000000000        13458878928.087456     
   30.000000000000000        13053393752.601130     
   31.000000000000000        12658683695.817533     
   32.000000000000000        12274533210.004652     
   33.000000000000000        11900727195.302879     
   34.000000000000000        11537051275.029018     
   35.000000000000000        11183292050.291500     
   36.000000000000000        10839237335.019516     
   37.000000000000000        10504676372.459202     
   38.000000000000000        10179400034.142868     
   39.000000000000000        9863201002.2911854     
   40.000000000000000        9555873936.5647850     
   41.000000000000000        9257215626.0392246     
   42.000000000000000        8967025127.2372265     
   43.000000000000000        8685103889.0127487     
   44.000000000000000        8411255865.0448551     
   45.000000000000000        8145287614.6628618     
   46.000000000000000        7887008392.6906023     
   47.000000000000000        7636230228.9643259     
   48.000000000000000        7392767998.1474171     
   49.000000000000000        7156439480.4348793     
   50.000000000000000        6927065413.7115993     
   51.000000000000000        6704469537.7006741     
   52.000000000000000        6488478630.6114168     
   53.000000000000000        6278922538.7714882     
   54.000000000000000        6075634199.7030430     
   55.000000000000000        5878449659.0795727     
   56.000000000000000        5687208081.9779396     
   57.000000000000000        5501751758.8186646     
   58.000000000000000        5321926106.3673458     
   59.000000000000000        5147579664.1503477     
   60.000000000000000        4978564086.6197023     
   61.000000000000000        4814734131.3839722     
   62.000000000000000        4655947643.8052521     
   63.000000000000000        4502065538.2459955     
   64.000000000000000        4352951776.2340355     
   65.000000000000000        4208473341.7994347     
   66.000000000000000        4068500214.2226758     
   67.000000000000000        3932905338.4202847     
   68.000000000000000        3801564593.1812534     
   69.000000000000000        3674356757.4553471     
   70.000000000000000        3551163474.8829165     
   71.000000000000000        3431869216.7445292     
   72.000000000000000        3316361243.4985509     
   73.000000000000000        3204529565.0643897     
   74.000000000000000        3096266899.9999399     
   75.000000000000000        2991468633.7124658     
   76.000000000000000        2890032775.8335719     
   77.000000000000000        2791859916.8808298     
   78.000000000000000        2696853184.3206997     
   79.000000000000000        2604918198.1400104     
   80.000000000000000        2515963026.0263820     
   81.000000000000000        2429898138.2510762     
   82.000000000000000        2346636362.3416286     
   83.000000000000000        2266092837.6254878     
   84.000000000000000        2188184969.7203245     
   85.000000000000000        2112832385.0411496     
   86.000000000000000        2039956885.3893991     
   87.000000000000000        1969482402.6842134     
   88.000000000000000        1901334953.8916478     
   89.000000000000000        1835442596.2031872     
   90.000000000000000        1771735382.5108187     
   91.000000000000000        1710145317.2221663     
   92.000000000000000        1650606312.4553864     
   93.000000000000000        1593054144.6502533     
   94.000000000000000        1537426411.6284344     
   95.000000000000000        1483662490.1330788     
   96.000000000000000        1431703493.8748310     
   97.000000000000000        1381492232.1086786     
   98.000000000000000        1332973168.7636075     
   99.000000000000000        1286092382.1444232     
   100.00000000000000        1240797525.2230914     
   101.00000000000000        1197037786.5346074     
   102.00000000000000        1154763851.6905663     
   103.00000000000000        1113927865.5216970     
   104.00000000000000        1074483394.8588533     
   105.00000000000000        1036385391.9603560     
   106.00000000000000        999590158.59205806     
   107.00000000000000        964055310.76507354     
   108.00000000000000        929739744.13476002     
   109.00000000000000        896603600.06336153     
   110.00000000000000        864608232.34752536     
   111.00000000000000        833716174.61085498     
   112.00000000000000        803891108.36066329     
   113.00000000000000        775097831.70719981     
   114.00000000000000        747302228.74275029     
   115.00000000000000        720471239.57721186     
   116.00000000000000        694572831.02609098     
   117.00000000000000        669575967.94613433     
   118.00000000000000        645450585.21324182     
   119.00000000000000        622167560.33675420     
   120.00000000000000        599698686.70367813     
   121.00000000000000        578016647.44598579     
   122.00000000000000        557094989.92368102     
   123.00000000000000        536908100.81597841     
   124.00000000000000        517431181.81258327     
   125.00000000000000        498640225.89676476     
   126.00000000000000        480511994.21167791     
   127.00000000000000        463023993.50111520     
   128.00000000000000        446154454.11569303     
   129.00000000000000        429882308.57530189     
   130.00000000000000        414187170.67848706     
   131.00000000000000        399049315.14932716     
   132.00000000000000        384449657.81224924     
   133.00000000000000        370369736.28515786     
   134.00000000000000        356791691.18119234     
   135.00000000000000        343698247.80940163     
   136.00000000000000        331072698.36455911     
   137.00000000000000        318898884.59638953     
   138.00000000000000        307161180.94845074     
   139.00000000000000        295844478.15693688     
   140.00000000000000        284934167.29973918     
   141.00000000000000        274416124.28608912     
   142.00000000000000        264276694.77722383     
   143.00000000000000        254502679.52854553     
   144.00000000000000        245081320.14383602     
   145.00000000000000        236000285.23217016     
   146.00000000000000        227247656.95826510     
   147.00000000000000        218811917.97710809     
   148.00000000000000        210681938.74379230     
   149.00000000000000        202846965.18963239     
   150.00000000000000        195296606.75571534     
   151.00000000000000        188020824.77519286     
   152.00000000000000        181009921.19572201     
   153.00000000000000        174254527.63360456     
   154.00000000000000        167745594.75130972     
   155.00000000000000        161474381.95018324     
   156.00000000000000        155432447.37029913     
   157.00000000000000        149611638.18954179     
   158.00000000000000        144004081.21414724     
   159.00000000000000        138602173.75307077     
   160.00000000000000        133398574.76869997     
   161.00000000000000        128386196.29656416     
   162.00000000000000        123558195.12683943     
   163.00000000000000        118907964.74059601     
   164.00000000000000        114429127.49387191     
   165.00000000000000        110115527.04279591     
   166.00000000000000        105961221.00314896     
   167.00000000000000        101960473.83785880     
   168.00000000000000        98107749.966094553     
   169.00000000000000        94397707.087755457     
   170.00000000000000        90825189.717285588     
   171.00000000000000        87385222.920888886     
   172.00000000000000        84073006.251353785     
   173.00000000000000        80883907.874830201     
   174.00000000000000        77813458.884036958     
   175.00000000000000        74857347.792512283     
   176.00000000000000        72011415.204638392     
   177.00000000000000        69271648.656319425     
   178.00000000000000        66634177.621297739     
   179.00000000000000        64095268.678231478     
   180.00000000000000        61651320.833776191     
   181.00000000000000        59298860.997029923     
   182.00000000000000        57034539.600824848     
   183.00000000000000        54855126.365462847     
   184.00000000000000        52757506.200605780     
   185.00000000000000        50738675.241146609     
   186.00000000000000        48795737.012996383     
   187.00000000000000        46925898.724828616     
   188.00000000000000        45126467.681933023     
   189.00000000000000        43394847.818429574     
   190.00000000000000        41728536.344199598     
   191.00000000000000        40125120.502988264     
   192.00000000000000        38582274.438232094     
   193.00000000000000        37097756.163258463     
   194.00000000000000        35669404.632600181     
   195.00000000000000        34295136.911257669     
   196.00000000000000        32972945.438830923     
   197.00000000000000        31700895.385533083     
   198.00000000000000        30477122.097178001     
   199.00000000000000        29299828.626322582     
   200.00000000000000        28167283.346823193     
   201.00000000000000        27077817.649144698     
   202.00000000000000        26029823.713840354     
   203.00000000000000        25021752.360693552     
   204.00000000000000        24052110.971087713     
   205.00000000000000        23119461.481243692     
   206.00000000000000        22222418.444030672     
   207.00000000000000        21359647.157128397     
   208.00000000000000        20529861.855382774     
   209.00000000000000        19731823.965263221     
   210.00000000000000        18964340.419391461     
   211.00000000000000        18226262.029175516     
   212.00000000000000        17516481.913639203     
   213.00000000000000        16833933.982599467     
   214.00000000000000        16177591.472396342     
   215.00000000000000        15546465.532439824     
   216.00000000000000        14939603.860887568     
   217.00000000000000        14356089.387822699     
   218.00000000000000        13795039.004349567     
   219.00000000000000        13255602.336075367     
   220.00000000000000        12736960.559494549     
   221.00000000000000        12238325.259836731     
   222.00000000000000        11758937.328987494     
   223.00000000000000        11298065.902132785     
   224.00000000000000        10855007.331821520     
   225.00000000000000        10429084.198182384     
   226.00000000000000        10019644.354071449     
   227.00000000000000        9626060.0039647035     
   228.00000000000000        9247726.8154501673     
   229.00000000000000        8884063.0622090995     
   230.00000000000000        8534508.7974117361     
   231.00000000000000        8198525.0564895552     
   232.00000000000000        7875593.0882768668     
   233.00000000000000        7565213.6135498034     
   234.00000000000000        7266906.1100212317     
   235.00000000000000        6980208.1228803555     
   236.00000000000000        6704674.5999974310     
   237.00000000000000        6439877.2509407597     
   238.00000000000000        6185403.9289828129     
   239.00000000000000        5940858.0352982935     
   240.00000000000000        5705857.9445847059     
   241.00000000000000        5480036.4513596240     
   242.00000000000000        5263040.2362154871     
   243.00000000000000        5054529.3513354091     
   244.00000000000000        4854176.7245974038     
   245.00000000000000        4661667.6816162933     
   246.00000000000000        4476699.4850954972     
   247.00000000000000        4298980.8908802588     
   248.00000000000000        4128231.7201262112     
   249.00000000000000        3964182.4470154461     
   250.00000000000000        3806573.8014722778     
   251.00000000000000        3655156.3863492277     
   252.00000000000000        3509690.3085715510     
   253.00000000000000        3369944.8237462239     
   254.00000000000000        3235697.9937579357     
   255.00000000000000        3106736.3568912693     
   256.00000000000000        2982854.6100334385     
   257.00000000000000        2863855.3025278593     
   258.00000000000000        2749548.5412629782     
   259.00000000000000        2639751.7065954949     
   260.00000000000000        2534289.1787206666     
   261.00000000000000        2432992.0741158803     
   262.00000000000000        2335697.9916964341     
   263.00000000000000        2242250.7683351929     
   264.00000000000000        2152500.2434096159     
   265.00000000000000        2066302.0320514855     
   266.00000000000000        1983517.3067858368     
   267.00000000000000        1904012.5872568039     
   268.00000000000000        1827659.5377481265     
   269.00000000000000        1754334.7722167994     
   270.00000000000000        1683919.6665678537     
   271.00000000000000        1616300.1779079642     
   272.00000000000000        1551366.6705247439     
   273.00000000000000        1489013.7483473509     
   274.00000000000000        1429140.0936529660     
   275.00000000000000        1371648.3117916300     
   276.00000000000000        1316444.7817101486     
   277.00000000000000        1263439.5120636341     
   278.00000000000000        1212546.0027104621     
   279.00000000000000        1163681.1113938871     
   280.00000000000000        1116764.9254205250     
   281.00000000000000        1071720.6381525078     
   282.00000000000000        1028474.4301368531     
   283.00000000000000        986955.35470171063     
   284.00000000000000        947095.22785531986     
   285.00000000000000        908828.52232939284     
   286.00000000000000        872092.26561417908     
   287.00000000000000        836825.94183815422     
   288.00000000000000        802971.39735036832     
   289.00000000000000        770472.74986864603     
   290.00000000000000        739276.30106181756     
   291.00000000000000        709330.45243884332     
   292.00000000000000        680585.62442225963     
   293.00000000000000        652994.17848789343     
   294.00000000000000        626510.34225699271     
   295.00000000000000        601090.13743100385     
   296.00000000000000        576691.31046336296     
   297.00000000000000        553273.26586628600     
   298.00000000000000        530797.00205444987     
   299.00000000000000        509225.04963087442     
   300.00000000000000        488521.41202389123     
   301.00000000000000        468651.50838725531     
   302.00000000000000        449582.11867883534     
   303.00000000000000        431281.33083629387     
   304.00000000000000        413718.48997114436     
   305.00000000000000        396864.14950558590     
   306.00000000000000        380690.02417908655     
   307.00000000000000        365168.94485455158     
   308.00000000000000        350274.81505637651     
   309.00000000000000        335982.56917522551     
   310.00000000000000        322268.13227672665     
   311.00000000000000        309108.38145369536     
   312.00000000000000        296481.10866355349     
   313.00000000000000        284364.98499495786     
   314.00000000000000        272739.52630956116     
   315.00000000000000        261585.06020695349     
   316.00000000000000        250882.69426263249     
   317.00000000000000        240614.28549085464     
   318.00000000000000        230762.41098586150     
   319.00000000000000        221310.33969681777     
   320.00000000000000        212242.00529338457     
   321.00000000000000        203541.98008048919     
   322.00000000000000        195195.44992240143     
   323.00000000000000        187188.19013767707     
   324.00000000000000        179506.54232800633     
   325.00000000000000        172137.39210536357     
   326.00000000000000        165068.14768318078     
   327.00000000000000        158286.71929857487     
   328.00000000000000        151781.49943386309     
   329.00000000000000        145541.34380681955     
   330.00000000000000        139555.55310024373     
   331.00000000000000        133813.85540255191     
   332.00000000000000        128306.38933213059     
   333.00000000000000        123023.68781924369     
   334.00000000000000        117956.66252025252     
   335.00000000000000        113096.58883987350     
   336.00000000000000        108435.09153811153     
   337.00000000000000        103964.13089936897     
   338.00000000000000        99675.989442122664     
   339.00000000000000        95563.259148329322     
   340.00000000000000        91618.829192544494     
   341.00000000000000        87835.874151479322     
   342.00000000000000        84207.842675465872     
   343.00000000000000        80728.446603980803     
   344.00000000000000        77391.650508080827     
   345.00000000000000        74191.661643238651     
   346.00000000000000        71122.920296700657     
   347.00000000000000        68180.090514090582     
   348.00000000000000        65358.051190571583     
   349.00000000000000        62651.887512426212     
   350.00000000000000        60056.882735466068     
   351.00000000000000        57568.510287195284     
   352.00000000000000        55182.426180151087     
   353.00000000000000        52894.461724326662     
   354.00000000000000        50700.616527045189     
   355.00000000000000        48597.051769101563     
   356.00000000000000        46580.083746405719     
   357.00000000000000        44646.177666791285     
   358.00000000000000        42791.941692034714     
   359.00000000000000        41014.121215521220     
   360.00000000000000        39309.593366357760     
   361.00000000000000        37675.361731086945     
   362.00000000000000        36108.551284500027     
   363.00000000000000        34606.403521367312     
   364.00000000000000        33166.271781228184     
   365.00000000000000        31785.616758676544     
   366.00000000000000        30462.002191880794     
   367.00000000000000        29193.090722344288     
   368.00000000000000        27976.639919195270     
   369.00000000000000        26810.498461546045     
   370.00000000000000        25692.602472714469     
   371.00000000000000        24620.972000342081     
   372.00000000000000        23593.707636670835     
   373.00000000000000        22608.987273468116     
   374.00000000000000        21665.062986295812     
   375.00000000000000        20760.258043035417     
   376.00000000000000        19892.964031767471     
