# Recoil energy (kev)        Event rate (events/gev)
   1.0000000000000000        3983.8598498895831     
   2.0000000000000000        7767.9625715239317     
   3.0000000000000000        11358.759656288998     
   4.0000000000000000        14761.537910676829     
   5.0000000000000000        17981.602866284564     
   6.0000000000000000        21024.265334924985     
   7.0000000000000000        23894.829056725262     
   8.0000000000000000        26598.579377805494     
   9.0000000000000000        29140.772897149473     
   10.000000000000000        31526.628025186692     
   11.000000000000000        33761.316399388976     
   12.000000000000000        35849.955104861430     
   13.000000000000000        37797.599650472475     
   14.000000000000000        39609.237653526703     
   15.000000000000000        41289.783188342895     
   16.000000000000000        42844.071756356527     
   17.000000000000000        44276.855837530122     
   18.000000000000000        45592.800984923968     
   19.000000000000000        46796.482426261588     
   20.000000000000000        47892.382138218542     
   21.000000000000000        48884.886360975906     
   22.000000000000000        49778.283522309015     
   23.000000000000000        50576.762542139499     
   24.000000000000000        51284.411490056264     
   25.000000000000000        51905.216569819764     
   26.000000000000000        52443.061406303023     
   27.000000000000000        52901.726611696504     
   28.000000000000000        53284.889609111902     
   29.000000000000000        53596.124692967780     
   30.000000000000000        53838.903306729073     
   31.000000000000000        54016.594519703685     
   32.000000000000000        54132.465685678573     
   33.000000000000000        54189.683267200977     
   34.000000000000000        54191.313810287473     
   35.000000000000000        54140.325055270987     
   36.000000000000000        54039.587170375824     
   37.000000000000000        53891.874095449923     
   38.000000000000000        53699.864984076587     
   39.000000000000000        53466.145733044548     
   40.000000000000000        53193.210588869086     
   41.000000000000000        52883.463821737678     
   42.000000000000000        52539.221457895634     
   43.000000000000000        52162.713062097013     
   44.000000000000000        51756.083562323802     
   45.000000000000000        51321.395109522382     
   46.000000000000000        50860.628965622396     
   47.000000000000000        50375.687413592503     
   48.000000000000000        49868.395683748946     
   49.000000000000000        49340.503890968241     
   50.000000000000000        48793.688977867554     
   51.000000000000000        48229.556659404465     
   52.000000000000000        47649.643364712945     
   53.000000000000000        47055.418172338243     
   54.000000000000000        46448.284735357374     
   55.000000000000000        45829.583193177779     
   56.000000000000000        45200.592067093807     
   57.000000000000000        44562.530136949870     
   58.000000000000000        43916.558296514719     
   59.000000000000000        43263.781385405506     
   60.000000000000000        42605.249995627848     
   61.000000000000000        41941.962251000739     
   62.000000000000000        41274.865557938087     
   63.000000000000000        40604.858326233712     
   64.000000000000000        39932.791658672919     
   65.000000000000000        39259.471008449487     
   66.000000000000000        38585.657803517694     
   67.000000000000000        37912.071037144917     
   68.000000000000000        37239.388824060436     
   69.000000000000000        36568.249921714596     
   70.000000000000000        35899.255216273312     
   71.000000000000000        35232.969173074904     
   72.000000000000000        34569.921251371816     
   73.000000000000000        33910.607283266036     
   74.000000000000000        33255.490816828620     
   75.000000000000000        32605.004423466980     
   76.000000000000000        31959.550969672051     
   77.000000000000000        31319.504853339102     
   78.000000000000000        30685.213204913442     
   79.000000000000000        30056.997053662530     
   80.000000000000000        29435.152459425793     
   81.000000000000000        28819.951610231346     
   82.000000000000000        28211.643886211976     
   83.000000000000000        27610.456890282821     
   84.000000000000000        27016.597446076892     
   85.000000000000000        26430.252563659022     
   86.000000000000000        25851.590373565152     
   87.000000000000000        25280.761029732384     
   88.000000000000000        24717.897581905236     
   89.000000000000000        24163.116818117647     
   90.000000000000000        23616.520077863282     
   91.000000000000000        23078.194036578589     
   92.000000000000000        22548.211462069554     
   93.000000000000000        22026.631943522236     
   94.000000000000000        21513.502593738856     
   95.000000000000000        21008.858725247592     
   96.000000000000000        20512.724500933542     
   97.000000000000000        20025.113559838603     
   98.000000000000000        19546.029618778775     
   99.000000000000000        19075.467050421677     
   100.00000000000000        18613.411438467450     
   101.00000000000000        18159.840110568060     
   102.00000000000000        17714.722649617477     
   103.00000000000000        17278.021384037202     
   104.00000000000000        16849.691857675396     
   105.00000000000000        16429.683279929752     
   106.00000000000000        16017.938956696582     
   107.00000000000000        15614.396702739141     
   108.00000000000000        15218.989236059082     
   109.00000000000000        14831.644554845418     
   110.00000000000000        14452.286297565281     
   111.00000000000000        14080.834086749619     
   112.00000000000000        13717.203857017457     
   113.00000000000000        13361.308167870266     
   114.00000000000000        13013.056501778010     
   115.00000000000000        12672.355548065731     
   116.00000000000000        12339.109473099585     
   117.00000000000000        12013.220177259085     
   118.00000000000000        11694.587539170279     
   119.00000000000000        11383.109647664101     
   120.00000000000000        11078.683021911927     
   121.00000000000000        10781.202820178558     
   122.00000000000000        10490.563037621963     
   123.00000000000000        10206.656693557490     
   124.00000000000000        9929.3760085923695     
   125.00000000000000        9658.6125720256259     
   126.00000000000000        9394.2574998974032     
   127.00000000000000        9136.2015840600343     
   128.00000000000000        8884.3354326327462     
   129.00000000000000        8638.5496021911877     
   130.00000000000000        8398.7347220319334     
   131.00000000000000        8164.7816108421512     
   132.00000000000000        7936.5813860938433     
   133.00000000000000        7714.0255664724327     
   134.00000000000000        7497.0061676389478     
   135.00000000000000        7285.4157916164540     
   136.00000000000000        7079.1477100800903     
   137.00000000000000        6878.0959418224766     
   138.00000000000000        6682.1553246560834     
   139.00000000000000        6491.2215820052616     
   140.00000000000000        6305.1913844325945     
   141.00000000000000        6123.9624063346118     
   142.00000000000000        5947.4333780346033     
   143.00000000000000        5775.5041334913258     
   144.00000000000000        5608.0756538352352     
   145.00000000000000        5445.0501069352613     
   146.00000000000000        5286.3308831924360     
   147.00000000000000        5131.8226277489348     
   148.00000000000000        4981.4312692939502     
   149.00000000000000        4835.0640456411529     
   150.00000000000000        4692.6295262454469     
   151.00000000000000        4554.0376318205972     
   152.00000000000000        4419.1996512124106     
   153.00000000000000        4288.0282556764669     
   154.00000000000000        4160.4375107033866     
   155.00000000000000        4036.3428855284105     
   156.00000000000000        3915.6612604569564     
   157.00000000000000        3798.3109321321954     
   158.00000000000000        3684.2116168652824     
   159.00000000000000        3573.2844521439674     
   160.00000000000000        3465.4519964304404     
   161.00000000000000        3360.6382273542217     
   162.00000000000000        3258.7685384016149     
   163.00000000000000        3159.7697341985913     
   164.00000000000000        3063.5700244798113     
   165.00000000000000        2970.0990168320623     
   166.00000000000000        2879.2877082970190     
   167.00000000000000        2791.0684759134924     
   168.00000000000000        2705.3750662763182     
   169.00000000000000        2622.1425841852270     
   170.00000000000000        2541.3074804533912     
   171.00000000000000        2462.8075389423102     
   172.00000000000000        2386.5818628862808     
   173.00000000000000        2312.5708605666728     
   174.00000000000000        2240.7162303933110     
   175.00000000000000        2170.9609454473812     
   176.00000000000000        2103.2492375373563     
   177.00000000000000        2037.5265808171935     
   178.00000000000000        1973.7396750130899     
   179.00000000000000        1911.8364283028907     
   180.00000000000000        1851.7659398898961     
   181.00000000000000        1793.4784823104737     
   182.00000000000000        1736.9254835127933     
   183.00000000000000        1682.0595087419520     
   184.00000000000000        1628.8342422647013     
   185.00000000000000        1577.2044689651975     
   186.00000000000000        1527.1260558413057     
   187.00000000000000        1478.5559334292602     
   188.00000000000000        1431.4520771828834     
   189.00000000000000        1385.7734888318485     
   190.00000000000000        1341.4801777421137     
   191.00000000000000        1298.5331423000373     
   192.00000000000000        1256.8943513404383     
   193.00000000000000        1216.5267256374404     
   194.00000000000000        1177.3941194757188     
   195.00000000000000        1139.4613023185457     
   196.00000000000000        1102.6939405878820     
   197.00000000000000        1067.0585795707120     
   198.00000000000000        1032.5226254646477     
   199.00000000000000        999.05432757497920     
   200.00000000000000        966.62276067433015     
   201.00000000000000        935.19780753515113     
   202.00000000000000        904.75014164449703     
   203.00000000000000        875.25121010965995     
   204.00000000000000        846.67321676247536     
   205.00000000000000        818.98910546942489     
   206.00000000000000        792.17254365389840     
   207.00000000000000        766.19790603634885     
   208.00000000000000        741.04025859748265     
   209.00000000000000        716.67534276898436     
   210.00000000000000        693.07955985572039     
   211.00000000000000        670.22995569291584     
   212.00000000000000        648.10420554116399     
   213.00000000000000        626.68059922181021     
   214.00000000000000        605.93802649466249     
   215.00000000000000        585.85596267970493     
   216.00000000000000        566.41445452396306     
   217.00000000000000        547.59410631441267     
   218.00000000000000        529.37606623740521     
   219.00000000000000        511.74201298477703     
   220.00000000000000        494.67414260654829     
   221.00000000000000        478.15515560973756     
   222.00000000000000        462.16824430265979     
   223.00000000000000        446.69708038375131     
   224.00000000000000        431.72580277375613     
   225.00000000000000        417.23900568991087     
   226.00000000000000        403.22172696055657     
   227.00000000000000        389.65943657837369     
   228.00000000000000        376.53802549036908     
   229.00000000000000        363.84379462248188     
   230.00000000000000        351.56344413657484     
   231.00000000000000        339.68406291747607     
   232.00000000000000        328.19311828754621     
   233.00000000000000        317.07844594618331     
   234.00000000000000        306.32824013158717     
   235.00000000000000        295.93104400194608     
   236.00000000000000        285.87574023322463     
   237.00000000000000        276.15154183057484     
   238.00000000000000        266.74798315037725     
   239.00000000000000        257.65491112982920     
   240.00000000000000        248.86247672100089     
   241.00000000000000        240.36112652615716     
   242.00000000000000        232.14159463118719     
   243.00000000000000        224.19489463390312     
   244.00000000000000        216.51231186397246     
   245.00000000000000        209.08539579120060     
   246.00000000000000        201.90595261891977     
   247.00000000000000        194.96603805915851     
   248.00000000000000        188.25795028633920     
   249.00000000000000        181.77422306618683     
   250.00000000000000        175.50761905658246     
   251.00000000000000        169.45112327707739     
   252.00000000000000        163.59793674380310     
   253.00000000000000        157.94147026653303     
   254.00000000000000        152.47533840464959     
   255.00000000000000        147.19335357882542     
   256.00000000000000        142.08952033521015     
   257.00000000000000        137.15802975897270     
   258.00000000000000        132.39325403405616     
   259.00000000000000        127.78974114604100     
   260.00000000000000        123.34220972504305     
   261.00000000000000        119.04554402560301     
   262.00000000000000        114.89478904055915     
   263.00000000000000        110.88514574593624     
   264.00000000000000        107.01196647391242     
   265.00000000000000        103.27075041097184     
   266.00000000000000        99.657139218380991     
   267.00000000000000        96.166912772185356     
   268.00000000000000        92.795985019936396     
   269.00000000000000        89.540399951427389     
   270.00000000000000        86.396327680741010     
   271.00000000000000        83.360060636963965     
   272.00000000000000        80.428009860965133     
   273.00000000000000        77.596701405669094     
   274.00000000000000        74.862772837317806     
   275.00000000000000        72.222969835240193     
   276.00000000000000        69.674142887700995     
   277.00000000000000        67.213244081448209     
   278.00000000000000        64.837323982613498     
   279.00000000000000        62.543528606670790     
   280.00000000000000        60.329096475201588     
   281.00000000000000        58.191355757254364     
   282.00000000000000        56.127721493138225     
   283.00000000000000        54.135692898523033     
   284.00000000000000        52.212850746771892     
   285.00000000000000        50.356854827469022     
   286.00000000000000        48.565441479145946     
   287.00000000000000        46.836421194260510     
   288.00000000000000        45.167676294515793     
   289.00000000000000        43.557158674649216     
   290.00000000000000        42.002887612867760     
   291.00000000000000        40.502947646139880     
   292.00000000000000        39.055486508596772     
   293.00000000000000        37.658713131335759     
   294.00000000000000        36.310895701957563     
   295.00000000000000        35.010359782202812     
   296.00000000000000        33.755486482100729     
   297.00000000000000        32.544710689067948     
   298.00000000000000        31.376519350442845     
   299.00000000000000        30.249449807969416     
   300.00000000000000        29.162088182786089     
   301.00000000000000        28.113067809501757     
   302.00000000000000        27.101067717985948     
   303.00000000000000        26.124811161525976     
   304.00000000000000        25.183064190037481     
   305.00000000000000        24.274634267054530     
   306.00000000000000        23.398368929246473     
   307.00000000000000        22.553154487249380     
   308.00000000000000        21.737914766626169     
   309.00000000000000        20.951609887800259     
   310.00000000000000        20.193235083836303     
   311.00000000000000        19.461819554975520     
   312.00000000000000        18.756425358851768     
   313.00000000000000        18.076146335353997     
   314.00000000000000        17.420107065117580     
   315.00000000000000        16.787461860662226     
   316.00000000000000        16.177393789211468     
   317.00000000000000        15.589113726264491     
   318.00000000000000        15.021859439005743     
   319.00000000000000        14.474894698670296     
   320.00000000000000        13.947508421001579     
   321.00000000000000        13.439013833964214     
   322.00000000000000        12.948747671897056     
   323.00000000000000        12.476069395312106     
   324.00000000000000        12.020360435569140     
   325.00000000000000        11.581023463675885     
   326.00000000000000        11.157481682483963     
   327.00000000000000        10.749178141572246     
   328.00000000000000        10.355575074128238     
   329.00000000000000        9.9761532551576781     
   330.00000000000000        9.6104113803706372     
   331.00000000000000        9.2578654651127898     
   332.00000000000000        8.9180482627258453     
   333.00000000000000        8.5905087017406494     
   334.00000000000000        8.2748113413223194     
   335.00000000000000        7.9705358444038374     
   336.00000000000000        7.6772764679613852     
   337.00000000000000        7.3946415698982264     
   338.00000000000000        7.1222531320229470     
   339.00000000000000        6.8597462986189184     
   340.00000000000000        6.6067689301194514     
   341.00000000000000        6.3629811714154547     
   342.00000000000000        6.1280550343379270     
   343.00000000000000        5.9016739938688723     
   344.00000000000000        5.6835325976495579     
   345.00000000000000        5.4733360883665654     
   346.00000000000000        5.2708000386086606     
   347.00000000000000        5.0756499977998093     
   348.00000000000000        4.8876211508255984     
   349.00000000000000        4.7064579879811337     
   350.00000000000000        4.5319139858802755     
   351.00000000000000        4.3637512989766920     
   352.00000000000000        4.2017404613575620     
   353.00000000000000        4.0456600984810933     
   354.00000000000000        3.8952966485391847     
   355.00000000000000        3.7504440931362102     
   356.00000000000000        3.6109036969836601     
   357.00000000000000        3.4764837563207056     
   358.00000000000000        3.3469993557785287     
   359.00000000000000        3.2222721334155584     
   360.00000000000000        3.1021300536588976     
   361.00000000000000        2.9864071878953378     
   362.00000000000000        2.8749435024636063     
   363.00000000000000        2.7675846538066180     
   364.00000000000000        2.6641817905506215     
   365.00000000000000        2.5645913622847063     
   366.00000000000000        2.4686749348220123     
   367.00000000000000        2.3762990117297997     
   368.00000000000000        2.2873348619231861     
   369.00000000000000        2.2016583531231340     
   370.00000000000000        2.1191497909856927     
   371.00000000000000        2.0396937637158299     
   372.00000000000000        1.9631789919846105     
   373.00000000000000        1.8894981839747622     
   374.00000000000000        1.8185478953845176     
   375.00000000000000        1.7502283942258985     
   376.00000000000000        1.6844435302578353     
