# Recoil energy (kev)        Event rate (events/gev)
   1.0000000000000000       0.98491738611791779     
   2.0000000000000000        3.8411804503721090     
   3.0000000000000000        8.4253968673319442     
   4.0000000000000000        14.599403247375532     
   5.0000000000000000        22.230288286531646     
   6.0000000000000000        31.190395969851171     
   7.0000000000000000        41.357310720058180     
   8.0000000000000000        52.613826257825266     
   9.0000000000000000        64.847899821322358     
   10.000000000000000        77.952593280423258     
   11.000000000000000        91.826002574823988     
   12.000000000000000        106.37117680507718     
   13.000000000000000        121.49602821088799     
   14.000000000000000        137.11323418169957     
   15.000000000000000        153.14013236039034     
   16.000000000000000        169.49860982152245     
   17.000000000000000        186.11498723085754     
   18.000000000000000        202.91989882250516     
   19.000000000000000        219.84816896391905     
   20.000000000000000        236.83868601679123     
   21.000000000000000        253.83427414351169     
   22.000000000000000        270.78156365405277     
   23.000000000000000        287.63086043679448     
   24.000000000000000        304.33601496864605     
   25.000000000000000        320.85429135476602     
   26.000000000000000        337.14623680603393     
   27.000000000000000        353.17555192303462     
   28.000000000000000        368.90896211854260     
   29.000000000000000        384.31609047617928     
   30.000000000000000        399.36933231096907     
   31.000000000000000        414.04373166774474     
   32.000000000000000        428.31685996570633     
   33.000000000000000        442.16869697173490     
   34.000000000000000        455.58151426122572     
   35.000000000000000        468.53976130314857     
   36.000000000000000        481.02995428559103     
   37.000000000000000        493.04056777921886     
   38.000000000000000        504.56192931862267     
   39.000000000000000        515.58611696559512     
   40.000000000000000        526.10685990354727     
   41.000000000000000        536.11944209888338     
   42.000000000000000        545.62060905269038     
   43.000000000000000        554.60847765488006     
   44.000000000000000        563.08244914259137     
   45.000000000000000        571.04312515534843     
   46.000000000000000        578.49222687095732     
   47.000000000000000        585.43251719853913     
   48.000000000000000        591.86772599818096     
   49.000000000000000        597.80247829051598     
   50.000000000000000        603.24222541411098     
   51.000000000000000        608.19317908360040     
   52.000000000000000        612.66224829726218     
   53.000000000000000        616.65697903894159     
   54.000000000000000        620.18549671601579     
   55.000000000000000        623.25645127224448     
   56.000000000000000        625.87896491203117     
   57.000000000000000        628.06258237060536     
   58.000000000000000        629.81722366308111     
   59.000000000000000        631.15313924399629     
   60.000000000000000        632.08086750807615     
   61.000000000000000        632.61119456215647     
   62.000000000000000        632.75511619791246     
   63.000000000000000        632.52380199474510     
   64.000000000000000        631.92856148225803     
   65.000000000000000        630.98081229200079     
   66.000000000000000        629.69205022848632     
   67.000000000000000        628.07382119015722     
   68.000000000000000        626.13769487157435     
   69.000000000000000        623.89524017903807     
   70.000000000000000        621.35800229272195     
   71.000000000000000        618.53748130953386     
   72.000000000000000        615.44511240199256     
   73.000000000000000        612.09224742968047     
   74.000000000000000        608.49013794112250     
   75.000000000000000        604.64991950526587     
   76.000000000000000        600.58259731317264     
   77.000000000000000        596.29903299196314     
   78.000000000000000        591.80993257452485     
   79.000000000000000        587.12583557002029     
   80.000000000000000        582.25710508174427     
   81.000000000000000        577.21391892040685     
   82.000000000000000        572.00626166251720     
   83.000000000000000        566.64391760502303     
   84.000000000000000        561.13646456898209     
   85.000000000000000        555.49326850654438     
   86.000000000000000        549.72347886709770     
   87.000000000000000        543.83602467991227     
   88.000000000000000        537.83961131217939     
   89.000000000000000        531.74271786282623     
   90.000000000000000        525.55359515389978     
   91.000000000000000        519.28026428288956     
   92.000000000000000        512.93051570064870     
   93.000000000000000        506.51190878108468     
   94.000000000000000        500.03177185009690     
   95.000000000000000        493.49720264261452     
   96.000000000000000        486.91506915791228     
   97.000000000000000        480.29201088462344     
   98.000000000000000        473.63444036818794     
   99.000000000000000        466.94854509461931     
   100.00000000000000        460.24028966574366     
   101.00000000000000        453.51541824214911     
   102.00000000000000        446.77945723125242     
   103.00000000000000        440.03771819895627     
   104.00000000000000        433.29530098444792     
   105.00000000000000        426.55709699867884     
   106.00000000000000        419.82779268810344     
   107.00000000000000        413.11187314616205     
   108.00000000000000        406.41362585595789     
   109.00000000000000        399.73714454844549     
   110.00000000000000        393.08633316132699     
   111.00000000000000        386.46490988466451     
   112.00000000000000        379.87641128003150     
   113.00000000000000        373.32419646078813     
   114.00000000000000        366.81145132180461     
   115.00000000000000        360.34119280765947     
   116.00000000000000        353.91627320904058     
   117.00000000000000        347.53938447771253     
   118.00000000000000        341.21306255103980     
   119.00000000000000        334.93969167766591     
   120.00000000000000        328.72150873652652     
   121.00000000000000        322.56060754188985     
   122.00000000000000        316.45894312769241     
   123.00000000000000        310.41833600489662     
   124.00000000000000        304.44047638609095     
   125.00000000000000        298.52692837200874     
   126.00000000000000        292.67913409507793     
   127.00000000000000        286.89841781550825     
   128.00000000000000        281.18598996583552     
   129.00000000000000        275.54295114021068     
   130.00000000000000        269.97029602505035     
   131.00000000000000        264.46891726804171     
   132.00000000000000        259.03960928277803     
   133.00000000000000        253.68307198661100     
   134.00000000000000        248.39991446958754     
   135.00000000000000        243.19065859263225     
   136.00000000000000        238.05574251333215     
   137.00000000000000        232.99552413797988     
   138.00000000000000        228.01028449871748     
   139.00000000000000        223.10023105484569     
   140.00000000000000        218.26550091756044     
   141.00000000000000        213.50616399756134     
   142.00000000000000        208.82222607515135     
   143.00000000000000        204.21363179261328     
   144.00000000000000        199.68026756879286     
   145.00000000000000        195.22196443595848     
   146.00000000000000        190.83850079914797     
   147.00000000000000        186.52960511832723     
   148.00000000000000        182.29495851379485     
   149.00000000000000        178.13419729537878     
   150.00000000000000        174.04691541606383     
   151.00000000000000        170.03266685077639     
   152.00000000000000        166.09096790112736     
   153.00000000000000        162.22129942700056     
   154.00000000000000        158.42310900593426     
   155.00000000000000        154.69581302129902     
   156.00000000000000        151.03879868033715     
   157.00000000000000        147.45142596317828     
   158.00000000000000        143.93302950398629     
   159.00000000000000        140.48292040542609     
   160.00000000000000        137.10038798768855     
   161.00000000000000        133.78470147332473     
   162.00000000000000        130.53511160917392     
   163.00000000000000        127.35085222669203     
   164.00000000000000        124.23114174200231     
   165.00000000000000        121.17518459699912     
   166.00000000000000        118.18217264286071     
   167.00000000000000        115.25128646731812     
   168.00000000000000        112.38169666704246     
   169.00000000000000        109.57256506651051     
   170.00000000000000        106.82304588471341     
   171.00000000000000        104.13228685106216     
   172.00000000000000        101.49943027184698     
   173.00000000000000        98.923614048593763     
   174.00000000000000        96.403972649659579     
   175.00000000000000        93.939638036393958     
   176.00000000000000        91.529740545176978     
   177.00000000000000        89.173409726644323     
   178.00000000000000        86.869775143380636     
   179.00000000000000        84.617967127356209     
   180.00000000000000        82.417117498359460     
   181.00000000000000        80.266360244666643     
   182.00000000000000        78.164832167159574     
   183.00000000000000        76.111673488098589     
   184.00000000000000        74.106028425720552     
   185.00000000000000        72.147045735826381     
   186.00000000000000        70.233879221487911     
   187.00000000000000        68.365688211994510     
   188.00000000000000        66.541638012124722     
   189.00000000000000        64.760900322817278     
   190.00000000000000        63.022653634284197     
   191.00000000000000        61.326083592591893     
   192.00000000000000        59.670383340708234     
   193.00000000000000        58.054753834994678     
   194.00000000000000        56.478404138093474     
   195.00000000000000        54.940551689143547     
   196.00000000000000        53.440422552228085     
   197.00000000000000        51.977251643941990     
   198.00000000000000        50.550282940933691     
   199.00000000000000        49.158769668262266     
   200.00000000000000        47.801974469384078     
   201.00000000000000        46.479169558557778     
   202.00000000000000        45.189636856440657     
   203.00000000000000        43.932668109619385     
   204.00000000000000        42.707564994803015     
   205.00000000000000        41.513639208379864     
   206.00000000000000        40.350212542021467     
   207.00000000000000        39.216616944992388     
   208.00000000000000        38.112194573808061     
   209.00000000000000        37.036297829859436     
   210.00000000000000        35.988289385603501     
   211.00000000000000        34.967542199900883     
   212.00000000000000        33.973439523059035     
   213.00000000000000        33.005374892126028     
   214.00000000000000        32.062752116953220     
   215.00000000000000        31.144985257536998     
   216.00000000000000        30.251498593121877     
   217.00000000000000        29.381726583538118     
   218.00000000000000        28.535113823224425     
   219.00000000000000        27.711114988372525     
   220.00000000000000        26.909194777613692     
   221.00000000000000        26.128827846650712     
   222.00000000000000        25.369498737223321     
   223.00000000000000        24.630701800782948     
   224.00000000000000        23.911941117231962     
   225.00000000000000        23.212730409075370     
   226.00000000000000        22.532592951314523     
   227.00000000000000        21.871061477398385     
   228.00000000000000        21.227678081540095     
   229.00000000000000        20.601994117686438     
   230.00000000000000        19.993570095422051     
   231.00000000000000        19.401975573073567     
   232.00000000000000        18.826789048270403     
   233.00000000000000        18.267597846204758     
   234.00000000000000        17.723998005826036     
   235.00000000000000        17.195594164189622     
   236.00000000000000        16.681999439174739     
   237.00000000000000        16.182835310771829     
   238.00000000000000        15.697731501133804     
   239.00000000000000        15.226325853572337     
   240.00000000000000        14.768264210676401     
   241.00000000000000        14.323200291716823     
   242.00000000000000        13.890795569494134     
   243.00000000000000        13.470719146780777     
   244.00000000000000        13.062647632497159     
   245.00000000000000        12.666265017756443     
   246.00000000000000        12.281262551905106     
   247.00000000000000        11.907338618677839     
   248.00000000000000        11.544198612580971     
   249.00000000000000        11.191554815609853     
   250.00000000000000        10.849126274401410     
   251.00000000000000        10.516638677915342     
   252.00000000000000        10.193824235732823     
   253.00000000000000        9.8804215570558416     
   254.00000000000000        9.5761755304842122     
   255.00000000000000        9.2808372046436514     
   256.00000000000000        8.9941636697315559     
   257.00000000000000        8.7159179400445517     
   258.00000000000000        8.4458688375452908     
   259.00000000000000        8.1837908765231688     
   260.00000000000000        7.9294641493988109     
   261.00000000000000        7.6826742137187454     
   262.00000000000000        7.4432119803815828     
   263.00000000000000        7.2108736031359397     
   264.00000000000000        6.9854603693838362     
   265.00000000000000        6.7667785923225612     
   266.00000000000000        6.5546395044531121     
   267.00000000000000        6.3488591524818379     
   268.00000000000000        6.1492582936374758     
   269.00000000000000        5.9556622934242496     
   270.00000000000000        5.7679010248287916     
   271.00000000000000        5.5858087689958955     
   272.00000000000000        5.4092241173862394     
   273.00000000000000        5.2379898754264396     
   274.00000000000000        5.0719529676604589     
   275.00000000000000        4.9109643444087503     
   276.00000000000000        4.7548788899396373     
   277.00000000000000        4.6035553321564793     
   278.00000000000000        4.4568561538012386     
   279.00000000000000        4.3146475051745803     
   280.00000000000000        4.1767991183704538     
   281.00000000000000        4.0431842230219921     
   282.00000000000000        3.9136794635542116     
   283.00000000000000        3.7881648179376253     
   284.00000000000000        3.6665235179358602     
   285.00000000000000        3.5486419708392747     
   286.00000000000000        3.4344096826752373     
   287.00000000000000        3.3237191828853447     
   288.00000000000000        3.2164659504584732     
   289.00000000000000        3.1125483415078472     
   290.00000000000000        3.0118675182796797     
   291.00000000000000        2.9143273795802296     
   292.00000000000000        2.8198344926071099     
   293.00000000000000        2.7282980261705645     
   294.00000000000000        2.6396296852896950     
   295.00000000000000        2.5537436471477490     
   296.00000000000000        2.4705564983908488     
   297.00000000000000        2.3899871737533593     
   298.00000000000000        2.3119568959933572     
   299.00000000000000        2.2363891171207655     
   300.00000000000000        2.1632094609009900     
   301.00000000000000        2.0923456666159508     
   302.00000000000000        2.0237275340649075     
   303.00000000000000        1.9572868697867194     
   304.00000000000000        1.8929574344851394     
   305.00000000000000        1.8306748916389510     
   306.00000000000000        1.7703767572780011     
   307.00000000000000        1.7120023509066904     
   308.00000000000000        1.6554927475561438     
   309.00000000000000        1.6007907309462206     
   310.00000000000000        1.5478407477385054     
   311.00000000000000        1.4965888628617585     
   312.00000000000000        1.4469827158906390     
   313.00000000000000        1.3989714784593226     
   314.00000000000000        1.3525058126911023     
   315.00000000000000        1.3075378306255094     
   316.00000000000000        1.2640210546242652     
   317.00000000000000        1.2219103787378354     
   318.00000000000000        1.1811620310141135     
   319.00000000000000        1.1417335367311352     
   320.00000000000000        1.1035836825357597     
   321.00000000000000        1.0666724814704041     
   322.00000000000000        1.0309611388701250     
   323.00000000000000       0.99641201911244792     
   324.00000000000000       0.96298861320253415     
   325.00000000000000       0.93065550717653578     
   326.00000000000000       0.89937835130600485     
   327.00000000000000       0.86912383008664307     
   328.00000000000000       0.83985963299470012     
   329.00000000000000       0.81155442599462824     
   330.00000000000000       0.78417782378171896     
   331.00000000000000       0.75770036274385588     
   332.00000000000000       0.73209347462650043     
   333.00000000000000       0.70732946088541815     
   334.00000000000000       0.68338146771178554     
   335.00000000000000       0.66022346171464508     
   336.00000000000000       0.63783020624577713     
   337.00000000000000       0.61617723835238392     
   338.00000000000000       0.59524084634322827     
   339.00000000000000       0.57499804795398657     
   340.00000000000000       0.55542656909795296     
   341.00000000000000       0.53650482318835346     
   342.00000000000000       0.51821189101888898     
   343.00000000000000       0.50052750118917444     
   344.00000000000000       0.48343201106219580     
   345.00000000000000       0.46690638824096881     
   346.00000000000000       0.45093219255191180     
   347.00000000000000       0.43549155852262400     
   348.00000000000000       0.42056717834206125     
   349.00000000000000       0.40614228529122487     
   350.00000000000000       0.39220063763283403     
   351.00000000000000       0.37872650294856480     
   352.00000000000000       0.36570464291275528     
   353.00000000000000       0.35312029849162357     
   354.00000000000000       0.34095917555732652     
   355.00000000000000       0.32920743090639065     
   356.00000000000000       0.31785165867220816     
   357.00000000000000       0.30687887712162359     
   358.00000000000000       0.29627651582570946     
   359.00000000000000       0.28603240319515261     
   360.00000000000000       0.27613475437081442     
   361.00000000000000       0.26657215946025198     
   362.00000000000000       0.25733357211120367     
   363.00000000000000       0.24840829841320147     
   364.00000000000000       0.23978598611872590     
   365.00000000000000       0.23145661417543820     
   366.00000000000000       0.22341048256131060     
   367.00000000000000       0.21563820241454926     
   368.00000000000000       0.20813068645049160     
   369.00000000000000       0.20087913965778464     
   370.00000000000000       0.19387505026632729     
   371.00000000000000       0.18711018097968390     
   372.00000000000000       0.18057656046476619     
   373.00000000000000       0.17426647509186025     
   374.00000000000000       0.16817246091811236     
   375.00000000000000       0.16228729590788016     
   376.00000000000000       0.15660399238341410     
