# Recoil energy (kev)        Event rate (events/gev)
   1.0000000000000000        29990725788.949299     
   2.0000000000000000        29208573643.984447     
   3.0000000000000000        28441356439.134472     
   4.0000000000000000        27689088981.328377     
   5.0000000000000000        26951763926.026608     
   6.0000000000000000        26229353353.801491     
   7.0000000000000000        25521810265.466976     
   8.0000000000000000        24829069999.237495     
   9.0000000000000000        24151051573.313065     
   10.000000000000000        23487658957.168877     
   11.000000000000000        22838782274.707607     
   12.000000000000000        22204298942.314144     
   13.000000000000000        21584074744.736835     
   14.000000000000000        20977964851.604824     
   15.000000000000000        20385814777.286705     
   16.000000000000000        19807461286.685329     
   17.000000000000000        19242733249.464970     
   18.000000000000000        18691452445.106495     
   19.000000000000000        18153434321.091274     
   20.000000000000000        17628488706.422062     
   21.000000000000000        17116420482.600111     
   22.000000000000000        16617030214.090519     
   23.000000000000000        16130114740.226097     
   24.000000000000000        15655467730.418137     
   25.000000000000000        15192880204.465755     
   26.000000000000000        14742141019.680422     
   27.000000000000000        14303037326.470028     
   28.000000000000000        13875354993.956982     
   29.000000000000000        13458879007.138254     
   30.000000000000000        13053393837.030502     
   31.000000000000000        12658683785.180683     
   32.000000000000000        12274533303.863209     
   33.000000000000000        11900727293.226673     
   34.000000000000000        11537051376.597614     
   35.000000000000000        11183292155.095469     
   36.000000000000000        10839237442.661535     
   37.000000000000000        10504676482.554955     
   38.000000000000000        10179400146.321745     
   39.000000000000000        9863201116.1969185     
   40.000000000000000        9555874051.8558254     
   41.000000000000000        9257215742.3890991     
   42.000000000000000        8967025244.3347301     
   43.000000000000000        8685104006.5620632     
   44.000000000000000        8411255982.7655563     
   45.000000000000000        8145287732.2898846     
   46.000000000000000        7887008509.9741058     
   47.000000000000000        7636230345.6695385     
   48.000000000000000        7392768114.0543842     
   49.000000000000000        7156439595.3381491     
   50.000000000000000        6927065527.4200020     
   51.000000000000000        6704469650.0368900     
   52.000000000000000        6488478741.4116240     
   53.000000000000000        6278922647.8849850     
   54.000000000000000        6075634306.9918089     
   55.000000000000000        5878449764.4178381     
   56.000000000000000        5687208185.2517357     
   57.000000000000000        5501751859.9253836     
   58.000000000000000        5321926205.2152987     
   59.000000000000000        5147579760.6582670     
   60.000000000000000        4978564180.7163076     
   61.000000000000000        4814734223.0074987     
   62.000000000000000        4655947732.9029942     
   63.000000000000000        4502065624.7738590     
   64.000000000000000        4352951860.1561098     
   65.000000000000000        4208473423.0875177     
   66.000000000000000        4068500292.8558831     
   67.000000000000000        3932905414.3845935     
   68.000000000000000        3801564666.4691257     
   69.000000000000000        3674356828.0653000     
   70.000000000000000        3551163542.8191595     
   71.000000000000000        3431869282.0165744     
   72.000000000000000        3316361306.1208534     
   73.000000000000000        3204529625.0559902     
   74.000000000000000        3096266957.3841271     
   75.000000000000000        2991468688.5164547     
   76.000000000000000        2890032828.0881910     
   77.000000000000000        2791859966.6202016     
   78.000000000000000        2696853231.5819769     
   79.000000000000000        2604918242.9630799     
   80.000000000000000        2515963068.4535971     
   81.000000000000000        2429898178.3270326     
   82.000000000000000        2346636400.1128941     
   83.000000000000000        2266092873.1403975     
   84.000000000000000        2188185003.0287409     
   85.000000000000000        2112832416.1942756     
   86.000000000000000        2039956914.4395788     
   87.000000000000000        1969482429.6847351     
   88.000000000000000        1901334978.8966045     
   89.000000000000000        1835442619.2672718     
   90.000000000000000        1771735403.6891947     
   91.000000000000000        1710145336.5703218     
   92.000000000000000        1650606330.0289953     
   93.000000000000000        1593054160.5050511     
   94.000000000000000        1537426425.8201003     
   95.000000000000000        1483662502.7171292     
   96.000000000000000        1431703504.9065111     
   97.000000000000000        1381492241.6428761     
   98.000000000000000        1332973176.8547626     
   99.000000000000000        1286092388.8464456     
   100.00000000000000        1240797530.5892942     
   101.00000000000000        1197037790.6176362     
   102.00000000000000        1154763854.5423372     
   103.00000000000000        1113927867.1933403     
   104.00000000000000        1074483395.4006698     
   105.00000000000000        1036385391.4217682     
   106.00000000000000        999590157.02156997     
   107.00000000000000        964055308.21023560     
   108.00000000000000        929739740.64213991     
   109.00000000000000        896603595.67851734     
   110.00000000000000        864608227.11497998     
   111.00000000000000        833716168.57408226     
   112.00000000000000        803891101.56206632     
   113.00000000000000        775097824.18810439     
   114.00000000000000        747302220.54339206     
   115.00000000000000        720471230.73673081     
   116.00000000000000        694572821.58252609     
   117.00000000000000        669575957.93642402     
   118.00000000000000        645450574.67322564     
   119.00000000000000        622167549.30117154     
   120.00000000000000        599698675.20617735     
   121.00000000000000        578016635.51912916     
   122.00000000000000        557094977.59895635     
   123.00000000000000        536908088.12380660     
   124.00000000000000        517431168.78232503     
   125.00000000000000        498640212.55674380     
   126.00000000000000        480511980.58918601     
   127.00000000000000        463023979.62243164     
   128.00000000000000        446154440.00609881     
   129.00000000000000        429882294.25909567     
   130.00000000000000        414187156.17900616     
   131.00000000000000        399049300.48896307     
   132.00000000000000        384449643.01246715     
   133.00000000000000        370369721.36651546     
   134.00000000000000        356791676.16335887     
   135.00000000000000        343698232.71118093     
   136.00000000000000        331072683.20390737     
   137.00000000000000        318898869.39043599     
   138.00000000000000        307161165.71352065     
   139.00000000000000        295844462.90856987     
   140.00000000000000        284934152.05271298     
   141.00000000000000        274416109.05443710     
   142.00000000000000        264276679.57425857     
   143.00000000000000        254502664.36687899     
   144.00000000000000        245081305.03540143     
   145.00000000000000        236000270.18824130     
   146.00000000000000        227247641.98947725     
   147.00000000000000        218811903.09347895     
   148.00000000000000        210681923.95474178     
   149.00000000000000        202846950.50400230     
   150.00000000000000        195296592.18178979     
   151.00000000000000        188020810.32071707     
   152.00000000000000        181009906.86792046     
   153.00000000000000        174254513.43920296     
   154.00000000000000        167745580.69654948     
   155.00000000000000        161474368.04084173     
   156.00000000000000        155432433.61170790     
   157.00000000000000        149611624.58660251     
   158.00000000000000        144004067.77134982     
   159.00000000000000        138602160.47450861     
   160.00000000000000        133398561.65808788     
   161.00000000000000        128386183.35725363     
   162.00000000000000        123558182.36183377     
   163.00000000000000        118907952.15256584     
   164.00000000000000        114429115.08516917     
   165.00000000000000        110115514.81546937     
   166.00000000000000        105961208.95895697     
   167.00000000000000        101960461.97828349     
   168.00000000000000        98107738.292355180     
   169.00000000000000        94397695.600820258     
   170.00000000000000        90825178.417884916     
   171.00000000000000        87385211.809526995     
   172.00000000000000        84072995.328320265     
   173.00000000000000        80883897.140211314     
   174.00000000000000        77813448.337726712     
   175.00000000000000        74857337.434222773     
   176.00000000000000        72011405.033909976     
   177.00000000000000        69271638.672530785     
   178.00000000000000        66634167.823674612     
   179.00000000000000        64095259.065856479     
   180.00000000000000        61651311.405597590     
   181.00000000000000        59298851.751869604     
   182.00000000000000        57034530.537387006     
   183.00000000000000        54855117.482341722     
   184.00000000000000        52757497.496292852     
   185.00000000000000        50738666.714038119     
   186.00000000000000        48795728.661400184     
   187.00000000000000        46925890.546971008     
   188.00000000000000        45126459.675964989     
   189.00000000000000        43394839.982433014     
   190.00000000000000        41728528.676192947     
   191.00000000000000        40125113.000932403     
   192.00000000000000        38582267.100035578     
   193.00000000000000        37097748.986782789     
   194.00000000000000        35669397.615664355     
   195.00000000000000        34295130.051643059     
   196.00000000000000        32972938.734286025     
   197.00000000000000        31700888.833777092     
   198.00000000000000        30477115.695905413     
   199.00000000000000        29299822.373206668     
   200.00000000000000        28167277.239519957     
   201.00000000000000        27077811.685296059     
   202.00000000000000        26029817.891077556     
   203.00000000000000        25021746.676640168     
   204.00000000000000        24052105.423362728     
   205.00000000000000        23119456.067464110     
   206.00000000000000        22222413.161814276     
   207.00000000000000        21359642.004096109     
   208.00000000000000        20529856.829161141     
   209.00000000000000        19731819.063486315     
   210.00000000000000        18964335.639703248     
   211.00000000000000        18226257.369231578     
   212.00000000000000        17516477.371108588     
   213.00000000000000        16833929.555166468     
   214.00000000000000        16177587.157761896     
   215.00000000000000        15546461.328323025     
   216.00000000000000        14939599.765027184     
   217.00000000000000        14356085.397978203     
   218.00000000000000        13795035.118302455     
   219.00000000000000        13255598.551630102     
   220.00000000000000        12736956.874479648     
   221.00000000000000        12238321.672105709     
   222.00000000000000        11758933.836419474     
   223.00000000000000        11298062.502633447     
   224.00000000000000        10855004.023323661     
   225.00000000000000        10429080.978646593     
   226.00000000000000        10019641.221486580     
   227.00000000000000        9626056.9563483950     
   228.00000000000000        9247723.8508492671     
   229.00000000000000        8884060.1786998976     
   230.00000000000000        8534505.9931004494     
   231.00000000000000        8198522.3295124844     
   232.00000000000000        7875590.4368006075     
   233.00000000000000        7565211.0357714305     
   234.00000000000000        7266903.6041683778     
   235.00000000000000        6980205.6872112947     
   236.00000000000000        6704672.2328012055     
   237.00000000000000        6439874.9505370520     
   238.00000000000000        6185401.6937219966     
   239.00000000000000        5940855.8635613695     
   240.00000000000000        5705855.8347831396     
   241.00000000000000        5480034.4019353110     
   242.00000000000000        5263038.2456405424     
   243.00000000000000        5054527.4181120461     
   244.00000000000000        4854174.8472576812     
   245.00000000000000        4661665.8587219669     
   246.00000000000000        4476697.7152377097     
   247.00000000000000        4298979.1726793470     
   248.00000000000000        4128230.0522314049     
   249.00000000000000        3964180.8281045826     
   250.00000000000000        3806572.2302515116     
   251.00000000000000        3655154.8615527120     
   252.00000000000000        3509688.8289611060     
   253.00000000000000        3369943.3881109999     
   254.00000000000000        3235696.6009140639     
   255.00000000000000        3106735.0056815227     
   256.00000000000000        2982853.2993268445     
   257.00000000000000        2863854.0312193437     
   258.00000000000000        2749547.3082729792     
   259.00000000000000        2639750.5108695896     
   260.00000000000000        2534288.0192291699     
   261.00000000000000        2432990.9498534785     
   262.00000000000000        2335696.9016817547     
   263.00000000000000        2242249.7116104388     
   264.00000000000000        2152499.2190401508     
   265.00000000000000        2066301.0391254330     
   266.00000000000000        1983516.3444136942     
   267.00000000000000        1904011.6545710142     
   268.00000000000000        1827658.6339027036     
   269.00000000000000        1754333.8963869121     
   270.00000000000000        1683918.8179494222     
   271.00000000000000        1616299.3557172818     
   272.00000000000000        1551365.8739980548     
   273.00000000000000        1489012.9767404746     
   274.00000000000000        1429139.3462408916     
   275.00000000000000        1371647.5878681417     
   276.00000000000000        1316444.0805874211     
   277.00000000000000        1263438.8330718651     
   278.00000000000000        1212545.3451974881     
   279.00000000000000        1163680.4747248006     
   280.00000000000000        1116764.3089773071     
   281.00000000000000        1071720.0413336684     
   282.00000000000000        1028473.8523570464     
   283.00000000000000        986954.79539140046     
   284.00000000000000        947094.68646040966     
   285.00000000000000        908827.99831087887     
   286.00000000000000        872091.75844780554     
   287.00000000000000        836825.45101407403     
   288.00000000000000        802970.92237280507     
   289.00000000000000        770472.29025557055     
   290.00000000000000        739275.85634461138     
   291.00000000000000        709330.02216198971     
   292.00000000000000        680585.20814302191     
   293.00000000000000        652993.77577600989     
   294.00000000000000        626509.95269436901     
   295.00000000000000        601089.76061141700     
   296.00000000000000        576690.94599216687     
   297.00000000000000        553272.91336011747     
   298.00000000000000        530796.66114095703     
   299.00000000000000        509224.71994842991     
   300.00000000000000        488521.09322132601     
   301.00000000000000        468651.20012358431     
   302.00000000000000        449581.82062300364     
   303.00000000000000        431281.04266691481     
   304.00000000000000        413718.21137625066     
   305.00000000000000        396863.88018238143     
   306.00000000000000        380689.76383370848     
   307.00000000000000        365168.69320183143     
   308.00000000000000        350274.57181961043     
   309.00000000000000        335982.33408594824     
   310.00000000000000        322267.90507449227     
   311.00000000000000        309108.16188585549     
   312.00000000000000        296480.89648505388     
   313.00000000000000        284364.77996812365     
   314.00000000000000        272739.32820390229     
   315.00000000000000        261584.86879896087     
   316.00000000000000        250882.50933559172     
   317.00000000000000        240614.10683465196     
   318.00000000000000        230762.23839680426     
   319.00000000000000        221310.17297745138     
   320.00000000000000        212241.84425232018     
   321.00000000000000        203541.82453223257     
   322.00000000000000        195195.29968718393     
   323.00000000000000        187188.04504129515     
   324.00000000000000        179506.40220166117     
   325.00000000000000        172137.25678550929     
   326.00000000000000        165068.01701136981     
   327.00000000000000        158286.59312131221     
   328.00000000000000        151781.37760246475     
   329.00000000000000        145541.22617727023     
   330.00000000000000        139555.43953306266     
   331.00000000000000        133813.74576265886     
   332.00000000000000        128306.28348871747     
   333.00000000000000        123023.58564564936     
   334.00000000000000        117956.56389383764     
   335.00000000000000        113096.49364190536     
   336.00000000000000        108434.99965364428     
   337.00000000000000        103964.04221713322     
   338.00000000000000        99675.903854413089     
   339.00000000000000        95563.176550900243     
   340.00000000000000        91618.749484503584     
   341.00000000000000        87835.797235187900     
   342.00000000000000        84207.768456439531     
   343.00000000000000        80728.374990794211     
   344.00000000000000        77391.581412273852     
   345.00000000000000        74191.594979226342     
   346.00000000000000        71122.855981685541     
   347.00000000000000        68180.028467976430     
   348.00000000000000        65357.991335880404     
   349.00000000000000        62651.829774217367     
   350.00000000000000        60056.827041258395     
   351.00000000000000        57568.456566890018     
   352.00000000000000        55182.374365957985     
   353.00000000000000        52894.411750692052     
   354.00000000000000        50700.568330582253     
   355.00000000000000        48597.005288522356     
   356.00000000000000        46580.038922454856     
   357.00000000000000        44646.134442182367     
   358.00000000000000        42791.900011388192     
   359.00000000000000        41014.081025303778     
   360.00000000000000        39309.554614823915     
   361.00000000000000        37675.324368222427     
   362.00000000000000        36108.515261966255     
   363.00000000000000        34606.368792448295     
   364.00000000000000        33166.238300778365     
   365.00000000000000        31785.584483070408     
   366.00000000000000        30461.971078964161     
   367.00000000000000        29193.060731387111     
   368.00000000000000        27976.611010845343     
   369.00000000000000        26810.470597784733     
   370.00000000000000        25692.575616813050     
   371.00000000000000        24620.946116820698     
   372.00000000000000        23593.682691256960     
   373.00000000000000        22608.963233057762     
   374.00000000000000        21665.039818915342     
   375.00000000000000        20760.235717804153     
   376.00000000000000        19892.942518862543     
