# Recoil energy (kev)        Event rate (events/gev)
   1.0000000000000000        26127303160.540531     
   2.0000000000000000        25447860411.350616     
   3.0000000000000000        24781327015.644459     
   4.0000000000000000        24127718799.705997     
   5.0000000000000000        23487032292.744812     
   6.0000000000000000        22859246093.497478     
   7.0000000000000000        22244322166.461693     
   8.0000000000000000        21642207070.758018     
   9.0000000000000000        21052833124.546230     
   10.000000000000000        20476119507.819511     
   11.000000000000000        19911973306.297237     
   12.000000000000000        19360290499.036163     
   13.000000000000000        18820956892.278675     
   14.000000000000000        18293849001.961727     
   15.000000000000000        17778834887.216240     
   16.000000000000000        17275774937.096134     
   17.000000000000000        16784522612.687609     
   18.000000000000000        16304925146.666418     
   19.000000000000000        15836824202.286688     
   20.000000000000000        15380056493.706427     
   21.000000000000000        14934454369.478222     
   22.000000000000000        14499846360.959139     
   23.000000000000000        14076057697.322012     
   24.000000000000000        13662910788.781954     
   25.000000000000000        13260225679.584312     
   26.000000000000000        12867820472.236364     
   27.000000000000000        12485511724.402798     
   28.000000000000000        12113114819.824976     
   29.000000000000000        11750444314.566725     
   30.000000000000000        11397314259.832964     
   31.000000000000000        11053538502.554518     
   32.000000000000000        10718930964.880642     
   33.000000000000000        10393305903.670919     
   34.000000000000000        10076478151.030613     
   35.000000000000000        9768263336.8871193     
   36.000000000000000        9468478094.5614529     
   37.000000000000000        9176940250.2454224     
   38.000000000000000        8893468997.2549438     
   39.000000000000000        8617885055.8897095     
   40.000000000000000        8350010819.6925488     
   41.000000000000000        8089670488.8647928     
   42.000000000000000        7836690191.5594139     
   43.000000000000000        7590898093.7399035     
   44.000000000000000        7352124498.2612524     
   45.000000000000000        7120201933.7978821     
   46.000000000000000        6894965234.2142162     
   47.000000000000000        6676251608.9452972     
   48.000000000000000        6463900704.9269142     
   49.000000000000000        6257754660.5897493     
   50.000000000000000        6057658152.4059601     
   51.000000000000000        5863458434.4533844     
   52.000000000000000        5675005371.4393740     
   53.000000000000000        5492151465.6041613     
   54.000000000000000        5314751877.9030533     
   55.000000000000000        5142664443.8460217     
   56.000000000000000        4975749684.3546600     
   57.000000000000000        4813870811.9776039     
   58.000000000000000        4656893732.7881498     
   59.000000000000000        4504687044.2707281     
   60.000000000000000        4357122029.4871721     
   61.000000000000000        4214072647.7980795     
   62.000000000000000        4075415522.3998833     
   63.000000000000000        3941029924.9243960     
   64.000000000000000        3810797757.3341599     
   65.000000000000000        3684603531.3340001     
   66.000000000000000        3562334345.5073233     
   67.000000000000000        3443879860.3736844     
   68.000000000000000        3329132271.5534678     
   69.000000000000000        3217986281.2146835     
   70.000000000000000        3110339067.9669290     
   71.000000000000000        3006090255.3579736     
   72.000000000000000        2905141879.1193266     
   73.000000000000000        2807398353.2983556     
   74.000000000000000        2712766435.4063659     
   75.000000000000000        2621155190.7042098     
   76.000000000000000        2532475955.7392383     
   77.000000000000000        2446642301.2407861     
   78.000000000000000        2363569994.4740925     
   79.000000000000000        2283176961.1464782     
   80.000000000000000        2205383246.9534621     
   81.000000000000000        2130110978.8465633     
   82.000000000000000        2057284326.0991566     
   83.000000000000000        1986829461.2415297     
   84.000000000000000        1918674520.9313369     
   85.000000000000000        1852749566.8209383     
   86.000000000000000        1788986546.4787114     
   87.000000000000000        1727319254.4172153     
   88.000000000000000        1667683293.2770426     
   89.000000000000000        1610016035.2116015     
   90.000000000000000        1554256583.5143151     
   91.000000000000000        1500345734.5264955     
   92.000000000000000        1448225939.8609173     
   93.000000000000000        1397841268.9731715     
   94.000000000000000        1349137372.1099467     
   95.000000000000000        1302061443.6608658     
   96.000000000000000        1256562185.9378791     
   97.000000000000000        1212589773.4038537     
   98.000000000000000        1170095817.3698692     
   99.000000000000000        1129033331.1784875     
   100.00000000000000        1089356695.8884711     
   101.00000000000000        1051021626.4743454     
   102.00000000000000        1013985138.5527430     
   103.00000000000000        978205515.64557672     
   104.00000000000000        943642276.98877692     
   105.00000000000000        910256145.89370501     
   106.00000000000000        878009018.66723371     
   107.00000000000000        846863934.09504867     
   108.00000000000000        816785043.49168634     
   109.00000000000000        787737581.31967080     
   110.00000000000000        759687836.37916851     
   111.00000000000000        732603123.56857419     
   112.00000000000000        706451756.21560383     
   113.00000000000000        681203018.97770834     
   114.00000000000000        656827141.30978119     
   115.00000000000000        633295271.49652719     
   116.00000000000000        610579451.24619305     
   117.00000000000000        588652590.84178138     
   118.00000000000000        567488444.84531498     
   119.00000000000000        547061588.35028958     
   120.00000000000000        527347393.77691060     
   121.00000000000000        508322008.20440751     
   122.00000000000000        489962331.23426533     
   123.00000000000000        472245993.37793833     
   124.00000000000000        455151334.96227831     
   125.00000000000000        438657385.54565632     
   126.00000000000000        422743843.83753097     
   127.00000000000000        407391058.11397386     
   128.00000000000000        392580007.12151998     
   129.00000000000000        378292281.46152329     
   130.00000000000000        364510065.44707960     
   131.00000000000000        351216119.42445374     
   132.00000000000000        338393762.55086523     
   133.00000000000000        326026856.02040380     
   134.00000000000000        314099786.72979325     
   135.00000000000000        302597451.37568808     
   136.00000000000000        291505240.97514123     
   137.00000000000000        280809025.80090028     
   138.00000000000000        270495140.72316748     
   139.00000000000000        260550370.94947404     
   140.00000000000000        250961938.15438023     
   141.00000000000000        241717486.99068105     
   142.00000000000000        232805071.97391763     
   143.00000000000000        224213144.73199582     
   144.00000000000000        215930541.61180249     
   145.00000000000000        207946471.63476512     
   146.00000000000000        200250504.79339066     
   147.00000000000000        192832560.68089393     
   148.00000000000000        185682897.44611359     
   149.00000000000000        178792101.06601438     
   150.00000000000000        172151074.92816472     
   151.00000000000000        165751029.71568811     
   152.00000000000000        159583473.58728385     
   153.00000000000000        153640202.64502978     
   154.00000000000000        147913291.68279055     
   155.00000000000000        142395085.20816001     
   156.00000000000000        137078188.73099613     
   157.00000000000000        131955460.31171478     
   158.00000000000000        127020002.36263342     
   159.00000000000000        122265153.69576766     
   160.00000000000000        117684481.81062561     
   161.00000000000000        113271775.41563973     
   162.00000000000000        109021037.17701818     
   163.00000000000000        104926476.68891416     
   164.00000000000000        100982503.65893725     
   165.00000000000000        97183721.303140879     
   166.00000000000000        93524919.944767132     
   167.00000000000000        90001070.811124787     
   168.00000000000000        86607320.023114070     
   169.00000000000000        83338982.772029489     
   170.00000000000000        80191537.678387910     
   171.00000000000000        77160621.327647731     
   172.00000000000000        74242022.977807209     
   173.00000000000000        71431679.433980525     
   174.00000000000000        68725670.085166231     
   175.00000000000000        66120212.098542385     
   176.00000000000000        63611655.766720034     
   177.00000000000000        61196480.003517494     
   178.00000000000000        58871287.983907096     
   179.00000000000000        56632802.923905917     
   180.00000000000000        54477863.996286310     
   181.00000000000000        52403422.378077604     
   182.00000000000000        50406537.425945185     
   183.00000000000000        48484372.975623898     
   184.00000000000000        46634193.761685498     
   185.00000000000000        44853361.954017490     
   186.00000000000000        43139333.807483889     
   187.00000000000000        41489656.421334274     
   188.00000000000000        39901964.605015919     
   189.00000000000000        38373977.847138330     
   190.00000000000000        36903497.384421572     
   191.00000000000000        35488403.367552064     
   192.00000000000000        34126652.120949484     
   193.00000000000000        32816273.493533250     
   194.00000000000000        31555368.297657590     
   195.00000000000000        30342105.833462328     
   196.00000000000000        29174721.495964866     
   197.00000000000000        28051514.462295189     
   198.00000000000000        26970845.456546169     
   199.00000000000000        25931134.589787502     
   200.00000000000000        24930859.272860840     
   201.00000000000000        23968552.199639965     
   202.00000000000000        23042799.398511216     
   203.00000000000000        22152238.349890783     
   204.00000000000000        21295556.167662747     
   205.00000000000000        20471487.842481092     
   206.00000000000000        19678814.544942338     
   207.00000000000000        18916361.986692179     
   208.00000000000000        18182998.837589227     
   209.00000000000000        17477635.197103526     
   210.00000000000000        16799221.118183862     
   211.00000000000000        16146745.181879519     
   212.00000000000000        15519233.121055141     
   213.00000000000000        14915746.491588421     
   214.00000000000000        14335381.389486782     
   215.00000000000000        13777267.212411396     
   216.00000000000000        13240565.464138990     
   217.00000000000000        12724468.600540631     
   218.00000000000000        12228198.915698467     
   219.00000000000000        11751007.466825351     
   220.00000000000000        11292173.036694031     
   221.00000000000000        10851001.132321836     
   222.00000000000000        10426823.018697483     
   223.00000000000000        10018994.786374483     
   224.00000000000000        9626896.4517917763     
   225.00000000000000        9249931.0892196782     
   226.00000000000000        8887523.9932639655     
   227.00000000000000        8539121.8708930593     
   228.00000000000000        8204192.0619900990     
   229.00000000000000        7882221.7874594107     
   230.00000000000000        7572717.4239511779     
   231.00000000000000        7275203.8042972656     
   232.00000000000000        6989223.5427796934     
   233.00000000000000        6714336.3843828989     
   234.00000000000000        6450118.5772082387     
   235.00000000000000        6196162.2672548993     
   236.00000000000000        5952074.9147990663     
   237.00000000000000        5717478.7316267109     
   238.00000000000000        5492010.1384010399     
   239.00000000000000        5275319.2414682331     
   240.00000000000000        5067069.3284291569     
   241.00000000000000        4866936.3818258801     
   242.00000000000000        4674608.6103140004     
   243.00000000000000        4489785.9967126828     
   244.00000000000000        4312179.8623442389     
   245.00000000000000        4141512.4470946440     
   246.00000000000000        3977516.5046461113     
   247.00000000000000        3819934.9123499887     
   248.00000000000000        3668520.2952272585     
   249.00000000000000        3523034.6636003708     
   250.00000000000000        3383249.0638773753     
   251.00000000000000        3248943.2420250070     
   252.00000000000000        3119905.3192834659     
   253.00000000000000        2995931.4796905997     
   254.00000000000000        2876825.6689977502     
   255.00000000000000        2762399.3045741660     
   256.00000000000000        2652470.9959098799     
   257.00000000000000        2546866.2753412565     
   258.00000000000000        2445417.3386352761     
   259.00000000000000        2347962.7950818101     
   260.00000000000000        2254347.4267547769     
   261.00000000000000        2164421.9566150219     
   262.00000000000000        2078042.8251386434     
   263.00000000000000        1995071.9751659541     
   264.00000000000000        1915376.6446762274     
   265.00000000000000        1838829.1672039526     
   266.00000000000000        1765306.7796220628     
   267.00000000000000        1694691.4370272055     
   268.00000000000000        1626869.6344711960     
   269.00000000000000        1561732.2352918291     
   270.00000000000000        1499174.3058048806     
   271.00000000000000        1439094.9561272897     
   272.00000000000000        1381397.1869097317     
   273.00000000000000        1325987.7417644616     
   274.00000000000000        1272776.9651818885     
   275.00000000000000        1221678.6657365935     
   276.00000000000000        1172609.9843904243     
   277.00000000000000        1125491.2677073439     
   278.00000000000000        1080245.9458008958     
   279.00000000000000        1036800.4148417817     
   280.00000000000000        995083.92395905196     
   281.00000000000000        955028.46637427260     
   282.00000000000000        916568.67461377010     
   283.00000000000000        879641.71964964981     
   284.00000000000000        844187.21382542991     
   285.00000000000000        810147.11742744828     
   286.00000000000000        777465.64876801870     
   287.00000000000000        746089.19765120908     
   288.00000000000000        715966.24209667754     
   289.00000000000000        687047.26820148667     
   290.00000000000000        659284.69302409992     
   291.00000000000000        632632.79037902423     
   292.00000000000000        607047.61943439161     
   293.00000000000000        582486.95600885991     
   294.00000000000000        558910.22646782827     
   295.00000000000000        536278.44412255252     
   296.00000000000000        514554.14803935657     
   297.00000000000000        493701.34416935960     
   298.00000000000000        473685.44871248747     
   299.00000000000000        454473.23363257834     
   300.00000000000000        436032.77424352092     
   301.00000000000000        418333.39878914447     
   302.00000000000000        401345.63994251838     
   303.00000000000000        385041.18815295753     
   304.00000000000000        369392.84677163395     
   305.00000000000000        354374.48888931406     
   306.00000000000000        339961.01582202152     
   307.00000000000000        326128.31718293444     
   308.00000000000000        312853.23248097172     
   309.00000000000000        300113.51418876648     
   310.00000000000000        287887.79222478141     
   311.00000000000000        276155.53979645052     
   312.00000000000000        264897.04055302090     
   313.00000000000000        254093.35699884221     
   314.00000000000000        243726.30011953140     
   315.00000000000000        233778.40017527455     
   316.00000000000000        224232.87861715342     
   317.00000000000000        215073.62108409806     
   318.00000000000000        206285.15143955496     
   319.00000000000000        197852.60680852280     
   320.00000000000000        189761.71357706725     
   321.00000000000000        181998.76431779558     
   322.00000000000000        174550.59560618844     
   323.00000000000000        167404.56669393447     
   324.00000000000000        160548.53900670525     
   325.00000000000000        153970.85643502508     
   326.00000000000000        147660.32638802388     
   327.00000000000000        141606.20158105181     
   328.00000000000000        135798.16252914639     
   329.00000000000000        130226.30071944845     
   330.00000000000000        124881.10243663361     
   331.00000000000000        119753.43321642585     
   332.00000000000000        114834.52290316744     
   333.00000000000000        110115.95128834646     
   334.00000000000000        105589.63430782438     
   335.00000000000000        101247.81077637733     
   336.00000000000000        97083.029638933440     
   337.00000000000000        93088.137718684244     
   338.00000000000000        89256.267943005078     
   339.00000000000000        85580.828028809992     
   340.00000000000000        82055.489609684519     
   341.00000000000000        78674.177787799650     
   342.00000000000000        75431.061094252422     
   343.00000000000000        72320.541842092629     
   344.00000000000000        69337.246856901722     
   345.00000000000000        66476.018570356973     
   346.00000000000000        63731.906462767256     
   347.00000000000000        61100.158841096003     
   348.00000000000000        58576.214939513018     
   349.00000000000000        56155.697329986288     
   350.00000000000000        53834.404630923316     
   351.00000000000000        51608.304502312945     
   352.00000000000000        49473.526916267030     
   353.00000000000000        47426.357692277343     
   354.00000000000000        45463.232286919811     
   355.00000000000000        43580.729828125281     
   356.00000000000000        41775.567384508642     
   357.00000000000000        40044.594460626875     
   358.00000000000000        38384.787709367709     
   359.00000000000000        36793.245853022956     
   360.00000000000000        35267.184804914425     
   361.00000000000000        33803.932983756946     
   362.00000000000000        32400.926813243754     
   363.00000000000000        31055.706399622799     
   364.00000000000000        29765.911380319521     
   365.00000000000000        28529.276936916285     
   366.00000000000000        27343.629966072382     
   367.00000000000000        26206.885402198721     
   368.00000000000000        25117.042685952212     
   369.00000000000000        24072.182372839357     
   370.00000000000000        23070.462876436413     
   371.00000000000000        22110.117340952613     
   372.00000000000000        21189.450638056809     
   373.00000000000000        20306.836483097064     
   374.00000000000000        19460.714666017044     
   375.00000000000000        18649.588392467816     
   376.00000000000000        17872.021730779841     
