# Recoil energy (kev)        Event rate (events/gev)
   1.0000000000000000       0.95944661326444480     
   2.0000000000000000        3.7421186722236750     
   3.0000000000000000        8.2083113717842178     
   4.0000000000000000        14.223414371962813     
   5.0000000000000000        21.657934352149915     
   6.0000000000000000        30.387498131895534     
   7.0000000000000000        40.292838201313359     
   8.0000000000000000        51.259762382021719     
   9.0000000000000000        63.179109223895878     
   10.000000000000000        75.946690633527268     
   11.000000000000000        89.463223126888096     
   12.000000000000000        103.63424900102298     
   13.000000000000000        118.37004862736975     
   14.000000000000000        133.58554498229023     
   15.000000000000000        149.20020144834675     
   16.000000000000000        165.13791384252843     
   17.000000000000000        181.32689755481812     
   18.000000000000000        197.69957061196138     
   19.000000000000000        214.19243341683745     
   20.000000000000000        230.74594585328384     
   21.000000000000000        247.30440238931294     
   22.000000000000000        263.81580575831049     
   23.000000000000000        280.23173974772055     
   24.000000000000000        296.50724157786516     
   25.000000000000000        312.60067430959413     
   26.000000000000000        328.47359967843374     
   27.000000000000000        344.09065171451107     
   28.000000000000000        359.41941147170019     
   29.000000000000000        374.43028315600230     
   30.000000000000000        389.09637191207145     
   31.000000000000000        403.39336349773669     
   32.000000000000000        417.29940604950139     
   33.000000000000000        430.79499411689710     
   34.000000000000000        443.86285512038825     
   35.000000000000000        456.48783836601808     
   36.000000000000000        468.65680673006580     
   37.000000000000000        480.35853110861120     
   38.000000000000000        491.58358770998439     
   39.000000000000000        502.32425825242211     
   40.000000000000000        512.57443311493478     
   41.000000000000000        522.32951747623997     
   42.000000000000000        531.58634046455177     
   43.000000000000000        540.34306733002063     
   44.000000000000000        548.59911464161132     
   45.000000000000000        556.35506850108504     
   46.000000000000000        563.61260575849860     
   47.000000000000000        570.37441820621791     
   48.000000000000000        576.64413972170269     
   49.000000000000000        582.42627632334666     
   50.000000000000000        587.72613909828442     
   51.000000000000000        592.54977995637535     
   52.000000000000000        596.90393016032863     
   53.000000000000000        600.79594157832105     
   54.000000000000000        604.23373060228937     
   55.000000000000000        607.22572467231680     
   56.000000000000000        609.78081134526565     
   57.000000000000000        611.90828984386826     
   58.000000000000000        613.61782502092842     
   59.000000000000000        614.91940367203347     
   60.000000000000000        615.82329312925287     
   61.000000000000000        616.34000206760163     
   62.000000000000000        616.48024345572719     
   63.000000000000000        616.25489958192611     
   64.000000000000000        615.67498908684070     
   65.000000000000000        614.75163593420768     
   66.000000000000000        613.49604025157214     
   67.000000000000000        611.91945097332894     
   68.000000000000000        610.03314021921904     
   69.000000000000000        607.84837934215147     
   70.000000000000000        605.37641658024177     
   71.000000000000000        602.62845624887495     
   72.000000000000000        599.61563940983785     
   73.000000000000000        596.34902595564699     
   74.000000000000000        592.83957804854674     
   75.000000000000000        589.09814485492825     
   76.000000000000000        585.13544851728273     
   77.000000000000000        580.96207130722485     
   78.000000000000000        576.58844390457739     
   79.000000000000000        572.02483474892233     
   80.000000000000000        567.28134041158967     
   81.000000000000000        562.36787693745055     
   82.000000000000000        557.29417210752138     
   83.000000000000000        552.06975857476527     
   84.000000000000000        546.70396782710111     
   85.000000000000000        541.20592493304787     
   86.000000000000000        535.58454402702910     
   87.000000000000000        529.84852449272796     
   88.000000000000000        524.00634780449639     
   89.000000000000000        518.06627498814669     
   90.000000000000000        512.03634466400263     
   91.000000000000000        505.92437163640682     
   92.000000000000000        499.73794599534477     
   93.000000000000000        493.48443269718086     
   94.000000000000000        487.17097159283190     
   95.000000000000000        480.80447787303319     
   96.000000000000000        474.39164290163330     
   97.000000000000000        467.93893540909033     
   98.000000000000000        461.45260301958513     
   99.000000000000000        454.93867408633207     
   100.00000000000000        448.40295981084870     
   101.00000000000000        441.85105662307132     
   102.00000000000000        435.28834880026534     
   103.00000000000000        428.72001130379175     
   104.00000000000000        422.15101281378412     
   105.00000000000000        415.58611894278164     
   106.00000000000000        409.02989561037344     
   107.00000000000000        402.48671256179369     
   108.00000000000000        395.96074701432349     
   109.00000000000000        389.45598741624821     
   110.00000000000000        382.97623730392411     
   111.00000000000000        376.52511924333788     
   112.00000000000000        370.10607884330352     
   113.00000000000000        363.72238882822757     
   114.00000000000000        357.37715315903341     
   115.00000000000000        351.07331119158687     
   116.00000000000000        344.81364186258998     
   117.00000000000000        338.60076789356538     
   118.00000000000000        332.43716000415503     
   119.00000000000000        326.32514112654292     
   120.00000000000000        320.26689061338004     
   121.00000000000000        314.26444843210516     
   122.00000000000000        308.31971933908449     
   123.00000000000000        302.43447702747312     
   124.00000000000000        296.61036824315681     
   125.00000000000000        290.84891686360157     
   126.00000000000000        285.15152793482412     
   127.00000000000000        279.51949166213745     
   128.00000000000000        273.95398735067073     
   129.00000000000000        268.45608729204775     
   130.00000000000000        263.02676059395435     
   131.00000000000000        257.66687694963139     
   132.00000000000000        252.37721034465397     
   133.00000000000000        247.15844269865133     
   134.00000000000000        242.01116743988422     
   135.00000000000000        236.93589301087923     
   136.00000000000000        231.93304630353904     
   137.00000000000000        227.00297602239641     
   138.00000000000000        222.14595597490617     
   139.00000000000000        217.36218828784402     
   140.00000000000000        212.65180654910623     
   141.00000000000000        208.01487887436579     
   142.00000000000000        203.45141089821311     
   143.00000000000000        198.96134868956898     
   144.00000000000000        194.54458159130883     
   145.00000000000000        190.20094498416196     
   146.00000000000000        185.93022297509017     
   147.00000000000000        181.73215101046472     
   148.00000000000000        177.60641841446187     
   149.00000000000000        173.55267085321381     
   150.00000000000000        169.57051272532891     
   151.00000000000000        165.65950947949955     
   152.00000000000000        161.81918985996725     
   153.00000000000000        158.04904808072050     
   154.00000000000000        154.34854592933715     
   155.00000000000000        150.71711480145856     
   156.00000000000000        147.15415766692595     
   157.00000000000000        143.65905096867388     
   158.00000000000000        140.23114645549089     
   159.00000000000000        136.86977294982523     
   160.00000000000000        133.57423805182643     
   161.00000000000000        130.34382978084636     
   162.00000000000000        127.17781815565537     
   163.00000000000000        124.07545671464132     
   164.00000000000000        121.03598397728024     
   165.00000000000000        118.05862484817690     
   166.00000000000000        115.14259196499823     
   167.00000000000000        112.28708699160441     
   168.00000000000000        109.49130185771264     
   169.00000000000000        106.75441994641768     
   170.00000000000000        104.07561723089255     
   171.00000000000000        101.45406336159577     
   172.00000000000000        98.888922705302846     
   173.00000000000000        96.379355337272969     
   174.00000000000000        93.924517987856504     
   175.00000000000000        91.523564944837076     
   176.00000000000000        89.175648912785434     
   177.00000000000000        86.879921830701136     
   178.00000000000000        84.635535649190942     
   179.00000000000000        82.441643068425222     
   180.00000000000000        80.297398238095425     
   181.00000000000000        78.201957420575795     
   182.00000000000000        76.154479618478177     
   183.00000000000000        74.154127167767257     
   184.00000000000000        72.200066297581699     
   185.00000000000000        70.291467657893335     
   186.00000000000000        68.427506816105549     
   187.00000000000000        66.607364723682039     
   188.00000000000000        64.830228153865534     
   189.00000000000000        63.095290111528449     
   190.00000000000000        61.401750216177938     
   191.00000000000000        59.748815059108473     
   192.00000000000000        58.135698535678500     
   193.00000000000000        56.561622153663400     
   194.00000000000000        55.025815318610185     
   195.00000000000000        53.527515597104511     
   196.00000000000000        52.065968958829323     
   197.00000000000000        50.640429998279735     
   198.00000000000000        49.250162136967674     
   199.00000000000000        47.894437806935017     
   200.00000000000000        46.572538616369378     
   201.00000000000000        45.283755498089633     
   202.00000000000000        44.027388841655316     
   203.00000000000000        42.802748609823901     
   204.00000000000000        41.609154440064216     
   205.00000000000000        40.445935731811076     
   206.00000000000000        39.312431720124280     
   207.00000000000000        38.207991536397664     
   208.00000000000000        37.131974256739063     
   209.00000000000000        36.083748938628283     
   210.00000000000000        35.062694646434586     
   211.00000000000000        34.068200466359784     
   212.00000000000000        33.099665511352477     
   213.00000000000000        32.156498916523425     
   214.00000000000000        31.238119825566688     
   215.00000000000000        30.343957368684507     
   216.00000000000000        29.473450632485957     
   217.00000000000000        28.626048622318631     
   218.00000000000000        27.801210217474456     
   219.00000000000000        26.998404119694360     
   220.00000000000000        26.217108795379751     
   221.00000000000000        25.456812411906984     
   222.00000000000000        24.717012768419504     
   223.00000000000000        23.997217221465835     
   224.00000000000000        23.296942605829631     
   225.00000000000000        22.615715150888857     
   226.00000000000000        21.953070392827996     
   227.00000000000000        21.308553083007766     
   228.00000000000000        20.681717092794717     
   229.00000000000000        20.072125315129274     
   230.00000000000000        19.479349563107313     
   231.00000000000000        18.902970465833938     
   232.00000000000000        18.342577361799179     
   233.00000000000000        17.797768190011947     
   234.00000000000000        17.268149379121891     
   235.00000000000000        16.753335734742603     
   236.00000000000000        16.252950325186195     
   237.00000000000000        15.766624365804075     
   238.00000000000000        15.293997102123244     
   239.00000000000000        14.834715691955033     
   240.00000000000000        14.388435086648505     
   241.00000000000000        13.954817911647938     
   242.00000000000000        13.533534346508823     
   243.00000000000000        13.124262004517368     
   244.00000000000000        12.726685812051738     
   245.00000000000000        12.340497887814939     
   246.00000000000000        11.965397422063647     
   247.00000000000000        11.601090555948423     
   248.00000000000000        11.247290261076580     
   249.00000000000000        10.903716219400556     
   250.00000000000000        10.570094703529909     
   251.00000000000000        10.246158457558723     
   252.00000000000000        9.9316465784944512     
   253.00000000000000        9.6263043983694345     
   254.00000000000000        9.3298833671099413     
   255.00000000000000        9.0421409362346523     
   256.00000000000000        8.7628404434470362     
   257.00000000000000        8.4917509981842052     
   258.00000000000000        8.2286473681784482     
   259.00000000000000        7.9733098670845086     
   260.00000000000000        7.7255242432210895     
   261.00000000000000        7.4850815694720607     
   262.00000000000000        7.2517781343874290     
   263.00000000000000        7.0254153345234309     
   264.00000000000000        6.8057995680543169     
   265.00000000000000        6.5927421296884514     
   266.00000000000000        6.3860591069156776     
   267.00000000000000        6.1855712776119551     
   268.00000000000000        5.9911040090232319     
   269.00000000000000        5.8024871581482804     
   270.00000000000000        5.6195549735379613     
   271.00000000000000        5.4421459985256320     
   272.00000000000000        5.2701029759012448     
   273.00000000000000        5.1032727540396472     
   274.00000000000000        4.9415061944913479     
   275.00000000000000        4.7846580810423882     
   276.00000000000000        4.6325870302476027     
   277.00000000000000        4.4851554034404746     
   278.00000000000000        4.3422292202206609     
   279.00000000000000        4.2036780734187857     
   280.00000000000000        4.0693750455369413     
   281.00000000000000        3.9391966266615746     
   282.00000000000000        3.8130226338443771     
   283.00000000000000        3.6907361319455889     
   284.00000000000000        3.5722233559327723     
   285.00000000000000        3.4573736346274102     
   286.00000000000000        3.3460793158902242     
   287.00000000000000        3.2382356932356315     
   288.00000000000000        3.1337409338646212     
   289.00000000000000        3.0324960081045416     
   290.00000000000000        2.9344046202435949     
   291.00000000000000        2.8393731407472651     
   292.00000000000000        2.7473105398429238     
   293.00000000000000        2.6581283224586087     
   294.00000000000000        2.5717404645014139     
   295.00000000000000        2.4880633504599627     
   296.00000000000000        2.4070157123158085     
   297.00000000000000        2.3285185697473256     
   298.00000000000000        2.2524951716100006     
   299.00000000000000        2.1788709386761380     
   300.00000000000000        2.1075734076173149     
   301.00000000000000        2.0385321762118220     
   302.00000000000000        1.9716788497600322     
   303.00000000000000        1.9069469886898487     
   304.00000000000000        1.8442720573341160     
   305.00000000000000        1.7835913738625495     
   306.00000000000000        1.7248440613494609     
   307.00000000000000        1.6679709999594914     
   308.00000000000000        1.6129147802329655     
   309.00000000000000        1.5596196574525421     
   310.00000000000000        1.5080315070728123     
   311.00000000000000        1.4580977811947482     
   312.00000000000000        1.4097674660663400     
   313.00000000000000        1.3629910405915042     
   314.00000000000000        1.3177204358288661     
   315.00000000000000        1.2739089954623906     
   316.00000000000000        1.2315114372256550     
   317.00000000000000        1.1904838152620563     
   318.00000000000000        1.1507834834028807     
   319.00000000000000        1.1123690593456481     
   320.00000000000000        1.0752003897151410     
   321.00000000000000        1.0392385159896138     
   322.00000000000000        1.0044456412749940     
   323.00000000000000       0.97078509790988032     
   324.00000000000000       0.93822131588440005     
   325.00000000000000       0.90671979205621889     
   326.00000000000000       0.87624706014697240     
   327.00000000000000       0.84677066150292246     
   328.00000000000000       0.81825911660345296     
   329.00000000000000       0.79068189730153637     
   330.00000000000000       0.76400939978028493     
   331.00000000000000       0.73821291821009871     
   332.00000000000000       0.71326461909097683     
   333.00000000000000       0.68913751626487152     
   334.00000000000000       0.66580544658314134     
   335.00000000000000       0.64324304621442652     
   336.00000000000000       0.62142572757844594     
   337.00000000000000       0.60032965689142592     
   338.00000000000000       0.57993173230923634     
   339.00000000000000       0.56020956265431299     
   340.00000000000000       0.54114144671287756     
   341.00000000000000       0.52270635308907221     
   342.00000000000000       0.50488390060295818     
   343.00000000000000       0.48765433921940687     
   344.00000000000000       0.47099853149530718     
   345.00000000000000       0.45489793453264443     
   346.00000000000000       0.43933458242524137     
   347.00000000000000       0.42429106918719900     
   348.00000000000000       0.40975053215132284     
   349.00000000000000       0.39569663582597053     
   350.00000000000000       0.38211355619906207     
   351.00000000000000       0.36898596547815982     
   352.00000000000000       0.35629901725578289     
   353.00000000000000       0.34403833208928997     
   354.00000000000000       0.33218998348493678     
   355.00000000000000       0.32074048427590113     
   356.00000000000000       0.30967677338424343     
   357.00000000000000       0.29898620295707062     
   358.00000000000000       0.28865652586727836     
   359.00000000000000       0.27867588356951156     
   360.00000000000000       0.26903279430217469     
   361.00000000000000       0.25971614162650192     
   362.00000000000000       0.25071516329392146     
   363.00000000000000       0.24201944043311457     
   364.00000000000000       0.23361888704839315     
   365.00000000000000       0.22550373982115418     
   366.00000000000000       0.21766454820644573     
   367.00000000000000       0.21009216481673956     
   368.00000000000000       0.20277773608530067     
   369.00000000000000       0.19571269320165197     
   370.00000000000000       0.18888874331181471     
   371.00000000000000       0.18229786097621967     
   372.00000000000000       0.17593227987826726     
   373.00000000000000       0.16978448477679475     
   374.00000000000000       0.16384720369574163     
   375.00000000000000       0.15811340034458751     
   376.00000000000000       0.15257626676319788     
