# Recoil energy (kev)        Event rate (events/gev)
  0.10000000000000001        4089739661.4979339     
   1.1000000000000001        3857254908.7743750     
   2.1000000000000001        3637023600.4560246     
   3.1000000000000001        3428449040.0652590     
   4.0999999999999996        3230961088.7106552     
   5.0999999999999996        3044015113.9607258     
   6.0999999999999996        2867090973.0099602     
   7.0999999999999996        2699692029.4775968     
   8.0999999999999996        2541344203.1535125     
   9.0999999999999996        2391595051.9874072     
   10.100000000000000        2250012885.6032410     
   11.100000000000000        2116185909.6093395     
   12.100000000000000        1989721399.9663725     
   13.100000000000000        1870244906.6694920     
   14.100000000000000        1757399485.9973357     
   15.100000000000000        1650844960.5794883     
   16.100000000000001        1550257206.5346012     
   17.100000000000001        1455327466.9337268     
   18.100000000000001        1365761690.8476005     
   19.100000000000001        1281279897.2421284     
   20.100000000000001        1201615562.9929855     
   21.100000000000001        1126515034.2984900     
   22.100000000000001        1055736960.7786418     
   23.100000000000001        989051751.55838418     
   24.100000000000001        926241052.64374089     
   25.100000000000001        867097244.91108572     
   26.100000000000001        811422962.04166901     
   27.100000000000001        759030627.74638534     
   28.100000000000001        709742011.63852775     
   29.100000000000001        663387803.12596202     
   30.100000000000001        619807202.70766580     
   31.100000000000001        578847530.07368290     
   32.100000000000001        540363848.42164660     
   33.100000000000001        504218604.41732615     
   34.100000000000001        470281283.24102783     
   35.100000000000001        438428078.17612022     
   36.100000000000001        408541574.21036738     
   37.100000000000001        380510445.13514078     
   38.100000000000001        354229163.64197469     
   39.100000000000001        329597723.93005848     
   40.100000000000001        306521376.35249877     
   41.100000000000001        284910373.64307678     
   42.100000000000001        264679728.27908105     
   43.100000000000001        245748980.54940820     
   44.100000000000001        228041976.91055983     
   45.100000000000001        211486658.22637528     
   46.100000000000001        196014857.50033456     
   47.100000000000001        181562106.72200969     
   48.100000000000001        168067452.46175113     
   49.100000000000001        155473279.85994256     
   50.100000000000001        143725144.66914469     
   51.100000000000001        132771613.01916789     
   52.100000000000001        122564108.58656727     
   53.100000000000001        113056766.86122116     
   54.100000000000001        104206296.21356237     
   55.100000000000001        95971845.476649836     
   56.100000000000001        88314877.767604753     
   57.100000000000001        81199050.283015683     
   58.100000000000001        74590099.812700361     
   59.100000000000001        68455733.725718290     
   60.100000000000001        62765526.191786893     
   61.100000000000001        57490819.410210781     
   62.100000000000001        52604629.627144039     
   63.100000000000001        48081557.730440967     
   64.099999999999994        43897704.219534680     
   65.099999999999994        40030588.355698116     
   66.099999999999994        36459071.305717625     
   67.099999999999994        33163283.099426627     
   68.099999999999994        30124553.228728853     
   69.099999999999994        27325344.722678524     
   70.099999999999994        24749191.539891891     
   71.099999999999994        22380639.126043867     
   72.099999999999994        20205187.990457095     
   73.099999999999994        18209240.161830001     
   74.099999999999994        16380048.388971694     
   75.099999999999994        14705667.958032284     
   76.099999999999994        13174911.003129041     
   77.099999999999994        11777303.192490460     
   78.099999999999994        10503042.677263770     
   79.099999999999994        9342961.1949752625     
   80.099999999999994        8288487.2242929386     
   81.099999999999994        7331611.0922228247     
   82.099999999999994        6464851.9391890084     
   83.099999999999994        5681226.4515924770     
   84.099999999999994        4974219.2754361704     
   85.099999999999994        4337755.0284342933     
   86.099999999999994        3766171.8317101151     
   87.099999999999994        3254196.2857220876     
   88.099999999999994        2796919.8184568845     
   89.099999999999994        2389776.3371875123     
   90.099999999999994        2028521.1182252849     
   91.099999999999994        1709210.8720954689     
   92.099999999999994        1428184.9244465814     
   93.099999999999994        1182047.4557636185     
   94.099999999999994        967650.74560219795     
   95.099999999999994        782079.36959626642     
   96.099999999999994        622635.29992193205     
   97.099999999999994        486823.86222661479     
   98.099999999999994        372340.50426101114     
   99.099999999999994        277058.33358423389     
   100.09999999999999        199016.38375362672     
   101.09999999999999        136408.57036368694     
   102.09999999999999        87573.300166625428     
   103.09999999999999        50983.698293358335     
   104.09999999999999        25238.420301479087     
   105.09999999999999        9053.0174090894761     
   106.09999999999999        1251.8248330017898     
   107.09999999999999        760.34463981505667     
   108.09999999999999        6598.0959413970368     
   109.09999999999999        17871.906625017018     
   110.09999999999999        33769.622105404036     
   111.09999999999999        53554.207823832628     
   112.09999999999999        76558.223400318471     
   113.09999999999999        102178.64747158288     
   114.09999999999999        129872.03332174865     
   115.09999999999999        159149.97643696677     
   116.09999999999999        189574.87609151550     
   117.09999999999999        220755.97400320836     
   118.09999999999999        252345.65398232260     
   119.09999999999999        284035.98734246159     
   120.09999999999999        315555.50964562455     
   121.09999999999999        346666.21511906578     
   122.09999999999999        377160.75580991496     
   123.09999999999999        406859.83323648834     
   124.09999999999999        435609.77095465857     
   125.09999999999999        463280.25708453212     
   126.09999999999999        489762.24643888889     
   127.09999999999999        514966.01246157096     
   128.09999999999999        538819.33972246072     
   129.09999999999999        561265.84822739603     
   130.09999999999999        582263.44128731580     
   131.09999999999999        601782.86915237643     
   132.09999999999999        619806.40105497884     
   133.09999999999999        636326.59872122773     
   134.09999999999999        651345.18480508681     
   135.09999999999999        664872.00007348484     
   136.09999999999999        676924.04352571256     
   137.09999999999999        687524.58996668970     
   138.09999999999999        696702.37987272232     
   139.09999999999999        704490.87669045210     
   140.09999999999999        710927.58699581632     
   141.09999999999999        716053.43921112688     
   142.09999999999999        719912.21683463803     
   143.09999999999999        722550.04238012049     
   144.09999999999999        724014.90845353727     
   145.09999999999999        724356.25261139392     
   146.09999999999999        723624.57285070617     
   147.09999999999999        721871.08077490958     
   148.09999999999999        719147.38966361177     
   149.09999999999999        715505.23484738288     
   150.09999999999999        710996.22395275068     
   151.09999999999999        705671.61473701673     
   152.09999999999999        699582.11837857449     
   153.09999999999999        692777.72622594028     
   154.09999999999999        685307.55813865177     
   155.09999999999999        677219.73067552305     
   156.09999999999999        668561.24350117601     
   157.09999999999999        659377.88249028404     
   158.09999999999999        649714.13811148307     
   159.09999999999999        639613.13776915858     
   160.09999999999999        629116.59087186307     
   161.09999999999999        618264.74548162054     
   162.09999999999999        607096.35547825415     
   163.09999999999999        595648.65724844427     
   164.09999999999999        583957.35497985419     
   165.09999999999999        572056.61370716395     
   166.09999999999999        559979.05931921001     
   167.09999999999999        547755.78479492501     
   168.09999999999999        535416.36199064495     
   169.09999999999999        522988.85835273925     
   170.09999999999999        510499.85797768342     
   171.09999999999999        497974.48648674088     
   172.09999999999999        485436.43922468403     
   173.09999999999999        472908.01233130071     
   174.09999999999999        460410.13627138746     
   175.09999999999999        447962.41144334112     
   176.09999999999999        435583.14551853627     
   177.09999999999999        423289.39219373901     
   178.09999999999999        411096.99106666935     
   179.09999999999999        399020.60837088135     
   180.09999999999999        387073.77833036636     
   181.09999999999999        375268.94491679699     
   182.09999999999999        363617.50381323410     
   183.09999999999999        352129.84440763196     
   184.09999999999999        340815.39165745128     
   185.09999999999999        329682.64768339880     
   186.09999999999999        318739.23296583822     
   187.09999999999999        307991.92703166703     
   188.09999999999999        297446.70853274473     
   189.09999999999999        287108.79462906945     
   190.09999999999999        276982.67960125400     
   191.09999999999999        267072.17262712517     
   192.09999999999999        257380.43466682144     
   193.09999999999999        247910.01440947445     
   194.09999999999999        238662.88324261387     
   195.09999999999999        229640.46921268516     
   196.09999999999999        220843.68995182350     
   197.09999999999999        212272.98455205612     
   198.09999999999999        203928.34437371037     
   199.09999999999999        195809.34277976048     
   200.09999999999999        187915.16379245039     
   201.09999999999999        180244.62967257973     
   202.09999999999999        172796.22742558026     
   203.09999999999999        165568.13424174659     
   204.09999999999999        158558.24188101149     
   205.09999999999999        151764.18001519071     
   206.09999999999999        145183.33854301419     
   207.09999999999999        138812.88889523025     
   208.09999999999999        132649.80434888642     
   209.09999999999999        126690.87937138931     
   210.09999999999999        120932.74801629945     
   211.09999999999999        115371.90139387287     
   212.09999999999999        110004.70424034513     
   213.09999999999999        104827.41061066177     
   214.09999999999999        99836.178719983203     
   215.09999999999999        95027.084959729022     
   216.09999999999999        90396.137114287631     
   217.09999999999999        85939.286804670948     
   218.09999999999999        81652.441185560689     
   219.09999999999999        77531.473922137899     
   220.09999999999999        73572.235473054330     
   221.09999999999999        69770.562705714590     
   222.09999999999999        66122.287869818436     
   223.09999999999999        62623.246954824543     
   224.09999999999999        59269.287456645128     
   225.09999999999999        56056.275578483102     
   226.09999999999999        52980.102890286267     
   227.09999999999999        50036.692470828151     
   228.09999999999999        47222.004555892483     
   229.09999999999999        44532.041715530067     
   230.09999999999999        41962.853582778553     
   231.09999999999999        39510.541155669023     
   232.09999999999999        37171.260693747710     
   233.09999999999999        34941.227229735108     
   234.09999999999999        32816.717716331521     
   235.09999999999999        30794.073827563476     
   236.09999999999999        28869.704433431292     
   237.09999999999999        27040.087766006603     
   238.09999999999999        25301.773294492992     
   239.09999999999999        23651.383326152394     
   240.09999999999999        22085.614349368974     
   241.09999999999999        20601.238134529853     
   242.09999999999999        19195.102607779689     
   243.09999999999999        17864.132512123102     
   244.09999999999999        16605.329869756486     
   245.09999999999999        15415.774258937747     
   246.09999999999999        14292.622918136560     
   247.09999999999999        13233.110689656154     
   248.09999999999999        12234.549814373742     
   249.09999999999999        11294.329588727534     
   250.09999999999999        10409.915894550606     
   251.09999999999999        9578.8506118654805     
   252.09999999999999        8798.7509242584783     
   253.09999999999999        8067.3085259804848     
   254.09999999999999        7382.2887394671889     
   255.09999999999999        6741.5295515215694     
   256.10000000000002        6142.9405759795764     
   257.10000000000002        5584.5019502543701     
   258.10000000000002        5064.2631727645339     
   259.10000000000002        4580.3418878553503     
   260.10000000000002        4130.9226244557367     
   261.10000000000002        3714.2554943492705     
   262.10000000000002        3328.6548555974159     
   263.10000000000002        2972.4979463160876     
   264.10000000000002        2644.2234936916393     
   265.10000000000002        2342.3303028146797     
   266.10000000000002        2065.3758296168571     
   267.10000000000002        1811.9747419174575     
   268.10000000000002        1580.7974723140119     
   269.10000000000002        1370.5687663993365     
   270.10000000000002        1180.0662295378802     
   271.10000000000002        1008.1188752032485     
   272.10000000000002        853.60567765518044     
   273.10000000000002        715.45413152060848     
   274.10000000000002        592.63882064342329     
   275.10000000000002        484.17999837373640     
   276.10000000000002        389.14218128600595     
   277.10000000000002        306.63275814146959     
   278.10000000000002        235.80061574713827     
   279.10000000000002        175.83478320730876     
   280.10000000000002        125.96309591682275     
   281.10000000000002        85.450880506447902     
   282.10000000000002        53.599661819322577     
   283.10000000000002        29.745892873934356     
   284.10000000000002        13.259708652199958     
   285.10000000000002        3.5437044418802395     
   286.10000000000002        3.1739359458394664E-002
   287.10000000000002        2.1877655827861267     
   288.10000000000002        9.5046837323305287     
   289.10000000000002        21.503224755015939     
   290.10000000000002        37.730858585392170     
   291.10000000000002        57.760729784932607     
   292.10000000000002        81.190620291410056     
   293.10000000000002        107.64193934632051     
   294.10000000000002        136.75874060876126     
   295.10000000000002        168.20676640938694     
   296.10000000000002        201.67251904691230     
   297.10000000000002        236.86235898309766     
   298.10000000000002        273.50162974864696     
   299.10000000000002        311.33380933335286     
   300.10000000000002        350.11968779730358     
   301.10000000000002        389.63657080729121     
   302.10000000000002        429.67750877258624     
   303.10000000000002        470.05055122724184     
   304.10000000000002        510.57802608191167     
   305.10000000000002        551.09584334617284     
   306.10000000000002        591.45282290360080     
   307.10000000000002        631.51004590391392     
   308.10000000000002        671.14022932280466     
   309.10000000000002        710.22712322594782     
   310.10000000000002        748.66493026383307     
   311.10000000000002        786.35774691397762     
   312.10000000000002        823.21902597992016     
   313.10000000000002        859.17105985061312     
   314.10000000000002        894.14448401860818     
   315.10000000000002        928.07780035266046     
   316.10000000000002        960.91691961859533     
   317.10000000000002        992.61472274085997     
   318.10000000000002        1023.1306402978282     
   319.10000000000002        1052.4302497453709     
   320.10000000000002        1080.4848898647836     
   321.10000000000002        1107.2712919347919     
   322.10000000000002        1132.7712271306675     
   323.10000000000002        1156.9711696587665     
   324.10000000000002        1179.8619751382914     
   325.10000000000002        1201.4385737502907     
   326.10000000000002        1221.6996776777369     
   327.10000000000002        1240.6475023689127     
   328.10000000000002        1258.2875011628125     
   329.10000000000002        1274.6281128229407     
   330.10000000000002        1289.6805215339268     
   331.10000000000002        1303.4584289235097     
   332.10000000000002        1315.9778376807017     
   333.10000000000002        1327.2568463502157     
   334.10000000000002        1337.3154548912510     
   335.10000000000002        1346.1753805987330     
   336.10000000000002        1353.8598839933006     
   337.10000000000002        1360.3936042966582     
   338.10000000000002        1365.8024041170802     
   339.10000000000002        1370.1132229802861     
   340.10000000000002        1373.3539393496760     
   341.10000000000002        1375.5532407894675     
   342.10000000000002        1376.7405019340397     
   343.10000000000002        1376.9456699354237     
   344.10000000000002        1376.1991570712630     
   345.10000000000002        1374.5317402035300     
   346.10000000000002        1371.9744667888074     
   347.10000000000002        1368.5585671489896     
   348.10000000000002        1364.3153727210297     
   349.10000000000002        1359.2762400125164     
   350.10000000000002        1353.4724799994824     
   351.10000000000002        1346.9352927106793     
   352.10000000000002        1339.6957067515877     
   353.10000000000002        1331.7845235296411     
   354.10000000000002        1323.2322659502481     
   355.10000000000002        1314.0691313614930     
   356.10000000000002        1304.3249485330800     
   357.10000000000002        1294.0291384629479     
   358.10000000000002        1283.2106788125184     
   359.10000000000002        1271.8980717788909     
   360.10000000000002        1260.1193152198823     
   361.10000000000002        1247.9018768542114     
   362.10000000000002        1235.2726713665911     
   363.10000000000002        1222.2580402541616     
   364.10000000000002        1208.8837342569034     
   365.10000000000002        1195.1748982213974     
   366.10000000000002        1181.1560582531520     
   367.10000000000002        1166.8511110192812     
   368.10000000000002        1152.2833150684839     
   369.10000000000002        1137.4752840415445     
   370.10000000000002        1122.4489816507169     
   371.10000000000002        1107.2257183119632     
   372.10000000000002        1091.8261493189245     
   373.10000000000002        1076.2702744528090     
   374.10000000000002        1060.5774389270437     
   375.10000000000002        1044.7663355702618     
